-0.176	0.719
-0.175	0.183
-0.194	0.396
-0.193	0.522
-0.195	0.573
-0.193	0.984
-0.2	1.129
-0.198	0.549
-0.198	0.072
-0.203	0.319
-0.188	-0.149
-0.199	-1.365
-0.199	-1.735
-0.198	-1.84
-0.199	-2.113
-0.203	-2.234
-0.195	-2.393
-0.187	-2.932
-0.195	-3.396
-0.195	-2.827
-0.193	-2.598
-0.189	-2.899
-0.186	-2.623
-0.188	-2.269
-0.176	-1.869
-0.188	-1.238
-0.186	-0.902
-0.186	-0.983
-0.188	-1.029
-0.186	-0.391
-0.195	-0.436
-0.194	-0.986
-0.212	-0.73
-0.209	-0.559
-0.219	-0.587
-0.22	-0.176
-0.21	0.125
-0.237	-0.079
-0.233	-0.469
-0.238	-0.001
-0.242	0.082
-0.244	-0.591
-0.244	-0.535
-0.234	-0.442
-0.25	-0.455
-0.258	-0.007
-0.255	0.233
-0.254	-0.228
-0.254	-0.546
-0.254	0.02
-0.248	-0.007
-0.258	-0.723
-0.25	-0.503
-0.25	-0.332
-0.25	-0.308
-0.238	0.082
-0.245	0.371
-0.242	0.004
-0.233	-0.344
-0.232	0.161
-0.229	0.189
-0.226	-0.504
-0.209	-0.524
-0.223	-0.305
-0.221	-0.154
-0.221	0.177
-0.219	0.394
-0.225	-0.001
-0.223	-0.336
-0.205	0.176
-0.22	0.269
-0.217	-0.24
-0.216	-0.219
-0.212	-0.197
-0.214	-0.16
-0.216	0.288
-0.214	0.598
-0.212	0.266
-0.215	0.05
-0.222	0.518
-0.227	0.502
-0.214	-0.044
-0.232	0.017
-0.238	0.054
-0.242	0.137
-0.242	0.587
-0.248	0.883
-0.254	0.508
-0.24	0.162
-0.253	0.527
-0.26	0.607
-0.262	0.065
-0.261	0.139
-0.261	0.259
-0.265	0.325
-0.254	0.781
-0.26	1.021
-0.264	0.576
-0.26	0.344
-0.259	0.956
-0.254	0.979
-0.255	0.424
-0.247	0.559
-0.248	0.664
-0.243	0.666
-0.239	1.005
-0.236	1.27
-0.221	0.911
-0.228	0.573
-0.225	1.018
-0.231	1.158
-0.222	0.576
-0.22	0.699
-0.216	0.768
-0.2	0.736
-0.216	1.143
-0.206	1.553
-0.208	1.3
-0.215	0.903
-0.206	1.162
-0.209	1.16
-0.195	0.59
-0.208	0.721
-0.203	0.787
-0.205	0.737
-0.203	1.168
-0.199	1.431
-0.209	0.916
-0.208	0.598
-0.212	1.03
-0.215	0.989
-0.217	0.302
-0.22	0.323
-0.209	0.343
-0.223	0.226
-0.217	0.582
-0.221	0.868
-0.223	0.37
-0.221	0.002
-0.217	0.316
-0.204	0.251
-0.214	-0.377
-0.21	-0.359
-0.203	-0.28
-0.2	-0.294
-0.193	0.067
-0.19	0.341
-0.172	-0.135
-0.175	-0.574
-0.168	-0.148
-0.157	-0.115
-0.149	-0.693
-0.129	-0.559
-0.133	-0.51
-0.123	-0.634
-0.121	-0.342
-0.109	-0.026
-0.106	-0.447
-0.094	-0.833
-0.072	-0.332
-0.079	-0.239
-0.072	-0.833
-0.061	-0.626
-0.059	-0.562
-0.049	-0.576
-0.043	-0.226
-0.023	0.04
-0.027	-0.331
-0.021	-0.725
-0.013	-0.28
-0.007	-0.248
-0.002	-0.928
-0.002	-0.735
0.012	-0.717
0.011	-0.719
0.011	-0.151
0.016	0.072
0.021	-0.367
0.033	-0.684
0.027	-0.26
0.028	-0.208
0.034	-0.814
0.031	-0.635
0.029	-0.525
0.038	-0.651
0.049	-0.328
0.037	0.048
0.04	-0.299
0.041	-0.67
0.051	-0.264
0.051	-0.199
0.057	-0.773
0.076	-0.675
0.068	-0.652
0.072	-0.575
0.076	-0.187
0.081	0.081
0.089	-0.352
0.084	-0.637
0.089	-0.115
0.084	-0.094
0.088	-0.883
0.087	-0.792
0.082	-0.5
0.098	-0.465
0.084	-0.229
0.085	0.022
0.081	-0.272
0.077	-0.614
0.079	-0.154
0.068	-0.129
0.078	-0.813
0.062	-0.671
0.061	-0.496
0.052	-0.427
0.046	-0.114
0.043	0.168
0.029	-0.254
0.034	-0.535
0.011	-0.09
0.005	0.016
-0.006	-0.674
-0.012	-0.696
-0.013	-0.721
-0.021	-0.638
-0.022	-0.215
-0.032	0.132
-0.034	-0.249
-0.041	-0.674
-0.044	-0.161
-0.035	-0.153
-0.046	-0.831
-0.051	-0.736
-0.051	-0.505
-0.052	-0.58
-0.055	-0.208
-0.057	0.098
-0.049	-0.254
-0.06	-0.707
-0.057	-0.337
-0.057	-0.193
-0.055	-0.884
-0.056	-0.861
-0.054	-0.707
-0.049	-0.719
-0.059	-0.244
-0.059	0.028
-0.055	-0.388
-0.063	-0.725
-0.063	-0.24
-0.07	-0.099
-0.067	-0.735
-0.071	-0.754
-0.079	-0.662
-0.079	-0.626
-0.082	-0.162
-0.073	0.182
-0.088	-0.195
-0.089	-0.56
-0.095	-0.225
-0.101	-0.245
-0.107	-0.902
-0.109	-0.754
-0.103	-0.486
-0.122	-0.435
-0.129	-0.092
-0.132	0.262
-0.135	-0.063
-0.139	-0.35
-0.146	0.079
-0.142	0.27
-0.151	-0.355
-0.156	-0.332
-0.16	-0.21
-0.16	-0.151
-0.148	0.297
-0.162	0.566
-0.156	0.112
-0.159	-0.105
-0.16	0.306
-0.155	0.388
-0.161	-0.302
-0.143	-0.168
-0.159	0.106
-0.159	-0.017
-0.151	0.243
-0.154	0.397
-0.151	-0.017
-0.155	-0.43
-0.142	-0.011
-0.159	0.079
-0.159	-0.53
-0.16	-0.558
-0.156	-0.518
-0.154	-0.526
-0.157	-0.161
-0.15	0.166
-0.157	-0.219
-0.16	-0.468
-0.165	-0.082
-0.171	-0.011
-0.162	-0.782
-0.176	-0.653
-0.177	-0.527
-0.183	-0.605
-0.186	-0.327
-0.193	0.061
-0.193	-0.273
-0.182	-0.615
-0.198	-0.181
-0.199	-0.145
-0.205	-0.801
-0.204	-0.79
-0.203	-0.759
-0.204	-0.786
-0.2	-0.294
-0.208	0.088
-0.205	-0.327
-0.203	-0.669
-0.201	-0.261
-0.198	-0.188
-0.199	-0.886
-0.183	-0.715
-0.188	-0.664
-0.179	-0.771
-0.177	-0.286
-0.175	0.05
-0.168	-0.371
-0.172	-0.845
-0.17	-0.408
-0.166	-0.195
-0.171	-0.76
-0.167	-0.715
-0.172	-0.621
-0.159	-0.658
-0.171	-0.223
-0.177	0.087
-0.181	-0.317
-0.187	-0.718
-0.189	-0.183
-0.193	0.052
-0.187	-0.441
-0.203	-0.188
-0.205	-0.001
-0.211	0.013
-0.223	0.308
-0.222	0.642
-0.233	0.432
-0.236	0.298
-0.243	0.813
-0.247	1.073
-0.247	0.552
-0.248	0.669
-0.239	0.861
-0.253	0.797
-0.249	0.957
-0.25	1.104
-0.254	0.547
-0.248	-0.022
-0.25	0.009
-0.236	-0.372
-0.247	-1.638
-0.244	-1.902
-0.237	-1.976
-0.24	-2.373
-0.237	-2.501
-0.234	-2.401
-0.221	-2.842
-0.229	-3.062
-0.233	-2.339
-0.228	-1.902
-0.231	-2.343
-0.228	-2.167
-0.239	-1.653
-0.233	-1.306
-0.238	-0.698
-0.24	-0.208
-0.243	-0.468
-0.24	-0.729
-0.233	-0.192
-0.248	0.074
-0.248	-0.53
-0.253	-0.521
-0.26	-0.289
-0.264	-0.198
-0.261	0.181
-0.254	0.482
-0.277	0.188
-0.277	-0.099
-0.282	0.237
-0.288	0.249
-0.291	-0.392
-0.294	-0.303
-0.288	-0.051
-0.299	-0.061
-0.303	0.308
-0.299	0.642
-0.293	0.249
-0.286	-0.011
-0.294	0.417
-0.293	0.56
-0.291	-0.061
-0.286	-0.121
-0.288	0.059
-0.282	0.054
-0.266	0.281
-0.278	0.615
-0.275	0.311
-0.272	0.049
-0.271	0.466
-0.272	0.507
-0.266	-0.127
-0.253	-0.015
-0.255	0.024
-0.259	0.09
-0.259	0.535
-0.253	0.807
-0.248	0.377
-0.253	0.06
-0.245	0.461
-0.253	0.627
-0.254	-0.062
-0.255	-0.002
-0.26	0.137
-0.253	0.137
-0.261	0.552
-0.269	0.812
-0.272	0.403
-0.277	0.138
-0.277	0.586
-0.278	0.756
-0.27	0.138
-0.284	0.162
-0.28	0.264
-0.284	0.383
-0.283	0.765
-0.282	1.055
-0.284	0.69
-0.273	0.306
-0.284	0.68
-0.281	0.839
-0.277	0.193
-0.276	0.219
-0.27	0.387
-0.265	0.449
-0.261	0.87
-0.262	1.29
-0.265	1.008
-0.256	0.625
-0.254	0.968
-0.243	1.093
-0.247	0.511
-0.24	0.566
-0.239	0.73
-0.24	0.692
-0.236	1.071
-0.234	1.431
-0.221	1.09
-0.228	0.817
-0.228	1.177
-0.233	1.281
-0.232	0.615
-0.236	0.701
-0.237	0.894
-0.226	0.886
-0.243	1.332
-0.245	1.685
-0.243	1.438
-0.247	0.953
-0.244	1.238
-0.256	1.396
-0.247	0.724
-0.255	0.779
-0.258	0.892
-0.261	0.825
-0.254	1.183
-0.248	1.503
-0.261	1.091
-0.254	0.598
-0.255	0.95
-0.247	1.114
-0.251	0.32
-0.249	0.171
-0.231	0.281
-0.243	0.262
-0.234	0.607
-0.232	0.773
-0.227	0.415
-0.225	-0.054
-0.219	0.205
-0.201	0.386
-0.21	-0.249
-0.208	-0.184
-0.2	-0.109
-0.192	-0.25
-0.178	-0.038
-0.176	0.281
-0.164	-0.021
-0.162	-0.441
-0.151	-0.195
-0.142	-0.012
-0.137	-0.551
-0.116	-0.488
-0.118	-0.221
-0.107	-0.365
-0.098	-0.117
-0.092	0.088
-0.083	-0.317
-0.068	-0.635
-0.052	-0.212
-0.055	-0.044
-0.049	-0.692
-0.038	-0.808
-0.028	-0.549
-0.024	-0.468
-0.02	-0.121
-0.006	0.232
-0.004	-0.084
-0.004	-0.5
0	-0.092
0.01	0.138
0.023	-0.587
0.02	-0.66
0.026	-0.542
0.035	-0.441
0.034	-0.054
0.043	0.211
0.039	-0.315
0.062	-0.638
0.052	-0.186
0.055	-0.004
0.062	-0.591
0.066	-0.576
0.068	-0.515
0.077	-0.536
0.094	-0.093
0.085	0.254
0.087	-0.002
0.089	-0.419
0.09	-0.06
0.105	0.15
0.107	-0.529
0.118	-0.549
0.12	-0.305
0.123	-0.555
0.128	-0.399
0.128	0.022
0.143	-0.162
0.132	-0.549
0.133	-0.165
0.134	0.001
0.138	-0.619
0.133	-0.603
0.125	-0.46
0.137	-0.424
0.118	-0.066
0.117	0.194
0.107	-0.122
0.106	-0.541
0.104	-0.138
0.096	0.015
0.101	-0.588
0.087	-0.547
0.082	-0.33
0.073	-0.471
0.067	-0.116
0.073	0.315
0.061	-0.112
0.066	-0.569
0.056	-0.25
0.052	-0.012
0.056	-0.648
0.052	-0.591
0.061	-0.454
0.056	-0.58
0.054	-0.189
0.051	0.139
0.054	-0.231
0.054	-0.535
0.059	-0.161
0.073	-0.085
0.054	-0.771
0.061	-0.673
0.062	-0.531
0.065	-0.557
0.067	-0.187
0.066	0.129
0.079	-0.238
0.068	-0.481
0.067	-0.112
0.067	-0.04
0.067	-0.71
0.067	-0.682
0.065	-0.524
0.065	-0.487
0.052	-0.142
0.063	0.171
0.059	-0.317
0.057	-0.715
0.067	-0.334
0.051	-0.111
0.056	-0.781
0.049	-0.789
0.048	-0.691
0.048	-0.66
0.043	-0.245
0.051	0.117
0.041	-0.153
0.037	-0.488
0.032	-0.033
0.026	0.142
0.024	-0.476
0.021	-0.4
0.027	-0.211
0.012	-0.189
0.01	0.216
0.005	0.554
0	0.215
0.001	-0.139
-0.009	0.12
-0.011	0.249
-0.017	-0.283
-0.021	-0.295
-0.026	-0.14
-0.024	-0.026
-0.018	0.396
-0.033	0.751
-0.028	0.366
-0.037	0.071
-0.038	0.32
-0.034	0.176
-0.033	-0.531
-0.018	-0.536
-0.027	-0.397
-0.028	-0.486
-0.021	-0.231
-0.022	0.123
-0.02	-0.205
-0.015	-0.673
-0.009	-0.358
-0.012	-0.085
-0.009	-0.748
-0.009	-0.792
-0.007	-0.676
0	-0.742
-0.01	-0.414
-0.002	-0.037
-0.01	-0.228
-0.017	-0.665
-0.015	-0.37
-0.012	-0.181
-0.004	-0.778
-0.017	-0.729
-0.018	-0.565
-0.022	-0.626
-0.027	-0.328
-0.031	-0.179
-0.031	-0.602
-0.018	-0.752
-0.043	-0.375
-0.045	-0.31
-0.044	-0.985
-0.051	-0.9
-0.044	-0.798
-0.054	-0.825
-0.045	-0.479
-0.049	-0.041
-0.054	-0.294
-0.056	-0.745
-0.049	-0.548
-0.041	-0.314
-0.05	-0.854
-0.046	-0.913
-0.051	-0.768
-0.043	-0.841
-0.045	-0.482
-0.043	-0.143
-0.023	-0.497
-0.031	-0.851
-0.028	-0.549
-0.031	-0.25
-0.026	-0.935
-0.027	-0.967
-0.027	-0.701
-0.015	-0.576
-0.027	-0.139
-0.02	0.327
-0.022	0.095
-0.028	-0.283
-0.022	0.089
-0.034	0.404
-0.033	-0.092
-0.041	0.111
-0.046	0.247
-0.05	0.443
-0.054	0.902
-0.05	1.255
-0.056	0.785
-0.063	0.256
-0.068	0.555
-0.068	0.598
-0.073	-0.127
-0.072	-0.457
-0.068	-0.872
-0.083	-1.624
-0.078	-1.642
-0.082	-1.514
-0.089	-2.173
-0.088	-2.914
-0.088	-2.939
-0.084	-2.937
-0.096	-3.466
-0.099	-3.308
-0.096	-2.732
-0.099	-2.494
-0.1	-1.998
-0.107	-1.388
-0.099	-1.31
-0.111	-1.354
-0.118	-0.885
-0.123	-0.596
-0.127	-1.166
-0.117	-1.085
-0.135	-0.836
-0.134	-0.684
-0.138	-0.254
-0.139	0.159
-0.146	-0.164
-0.15	-0.538
-0.132	-0.298
-0.144	-0.127
-0.149	-0.698
-0.149	-0.671
-0.144	-0.51
-0.142	-0.485
-0.148	0.012
-0.14	0.278
-0.144	-0.088
-0.146	-0.381
-0.145	-0.002
-0.153	0.162
-0.137	-0.424
-0.144	-0.446
-0.146	-0.396
-0.148	-0.42
-0.148	-0.012
-0.151	0.392
-0.159	0.131
-0.148	-0.314
-0.161	0.031
-0.171	0.371
-0.17	-0.312
-0.172	-0.327
-0.177	-0.225
-0.184	-0.271
-0.181	0.129
-0.195	0.438
-0.194	0.157
-0.199	-0.155
-0.199	0.234
-0.2	0.41
-0.197	-0.234
-0.189	-0.256
-0.198	-0.101
-0.192	-0.16
-0.193	0.232
-0.188	0.571
-0.176	0.221
-0.183	-0.123
-0.176	0.281
-0.177	0.393
-0.177	-0.315
-0.176	-0.253
-0.176	0.031
-0.166	0.087
-0.178	0.394
-0.178	0.769
-0.181	0.5
-0.181	0.034
-0.186	0.406
-0.19	0.731
-0.177	0.189
-0.197	0.216
-0.198	0.311
-0.2	0.225
-0.201	0.553
-0.206	1.023
-0.21	0.664
-0.209	0.249
-0.22	0.712
-0.217	0.991
-0.223	0.216
-0.221	0.26
-0.211	0.388
-0.225	0.488
-0.222	0.923
-0.221	1.255
-0.225	0.88
-0.225	0.583
-0.222	0.912
-0.204	1.097
-0.22	0.402
-0.221	0.405
-0.217	0.626
-0.212	0.714
-0.211	0.935
-0.21	1.273
-0.201	1.007
-0.215	0.634
-0.217	0.891
-0.219	1.158
-0.226	0.557
-0.217	0.569
-0.228	0.63
-0.229	0.574
-0.232	1.041
-0.233	1.466
-0.236	1.095
-0.242	0.505
-0.233	0.758
-0.25	1.039
-0.245	0.306
-0.251	0.237
-0.245	0.405
-0.244	0.333
-0.24	0.613
-0.231	0.773
-0.232	0.356
-0.227	-0.013
-0.222	0.214
-0.221	0.299
-0.212	-0.448
-0.201	-0.492
-0.19	-0.312
-0.192	-0.315
-0.186	-0.111
-0.176	0.188
-0.171	-0.21
-0.161	-0.67
-0.159	-0.388
-0.145	-0.06
-0.144	-0.746
-0.137	-0.67
-0.126	-0.518
-0.123	-0.713
-0.107	-0.563
-0.117	-0.133
-0.111	-0.3
-0.109	-0.659
-0.11	-0.397
-0.105	-0.27
-0.103	-0.935
-0.082	-1.152
-0.095	-0.862
-0.092	-0.861
-0.09	-0.5
-0.084	-0.182
-0.078	-0.533
-0.073	-0.835
-0.057	-0.56
-0.057	-0.347
-0.051	-0.944
-0.039	-0.984
-0.027	-0.917
-0.017	-0.999
-0.015	-0.702
-0.005	-0.276
0.004	-0.548
0.015	-0.933
0.016	-0.674
0.024	-0.38
0.041	-0.913
0.033	-0.991
0.037	-0.822
0.038	-0.83
0.039	-0.525
0.041	-0.179
0.038	-0.499
0.052	-0.908
0.041	-0.587
0.037	-0.28
0.034	-0.972
0.031	-0.981
0.033	-0.782
0.027	-0.833
0.027	-0.57
0.022	-0.205
0.021	-0.487
0.015	-0.72
0.015	-0.491
0.023	-0.394
0.013	-1.04
0.01	-1.057
0.01	-0.957
0.007	-0.984
0.01	-0.657
0.006	-0.298
0.013	-0.583
0.007	-0.876
0.007	-0.659
0.001	-0.238
0	-0.906
0.002	-1.08
0	-1.058
0.015	-1.018
0	-0.671
0.004	-0.314
0	-0.576
-0.006	-0.88
-0.005	-0.607
-0.015	-0.366
-0.011	-1.089
-0.024	-1.012
-0.029	-0.865
-0.033	-0.944
-0.038	-0.71
-0.035	-0.305
-0.046	-0.568
-0.056	-0.964
-0.062	-0.542
-0.071	-0.305
-0.071	-0.961
-0.076	-1.074
-0.066	-0.978
-0.087	-1.073
-0.081	-0.696
-0.078	-0.399
-0.082	-0.774
-0.084	-1.019
-0.087	-0.592
-0.07	-0.489
-0.084	-1.21
-0.081	-1.128
-0.076	-0.854
-0.074	-0.937
-0.068	-0.515
-0.082	-0.204
-0.074	-0.604
-0.085	-0.867
-0.085	-0.57
-0.087	-0.452
-0.089	-1.185
-0.081	-1.113
-0.095	-0.803
-0.101	-0.901
-0.111	-0.624
-0.11	-0.348
-0.126	-0.503
-0.134	-0.852
-0.126	-0.466
-0.144	-0.181
-0.15	-0.719
-0.161	-0.659
-0.161	-0.471
-0.164	-0.498
-0.167	-0.258
-0.167	0.179
-0.171	-0.111
-0.173	-0.519
-0.175	-0.135
-0.173	0.203
-0.166	-0.457
-0.168	-0.507
-0.168	-0.32
-0.171	-0.377
-0.168	0.066
-0.17	0.438
-0.167	-0.051
-0.162	-0.574
-0.168	-0.345
-0.168	-0.077
-0.176	-0.763
-0.178	-0.812
-0.179	-0.718
-0.186	-0.75
-0.183	-0.502
-0.2	-0.173
-0.2	-0.481
-0.208	-0.84
-0.217	-0.657
-0.22	-0.476
-0.225	-1.108
-0.217	-1.123
-0.231	-0.927
-0.239	-1.1
-0.238	-0.808
-0.237	-0.371
-0.232	-0.625
-0.242	-0.956
-0.242	-0.724
-0.237	-0.463
-0.243	-1.083
-0.243	-1.199
-0.238	-1.088
-0.223	-1.056
-0.237	-0.69
-0.236	-0.382
-0.228	-0.674
-0.228	-0.977
-0.231	-0.643
-0.234	-0.387
-0.219	-1.067
-0.231	-1.118
-0.239	-1.045
-0.236	-1.09
-0.238	-0.699
-0.232	-0.216
-0.243	-0.605
-0.234	-0.996
-0.244	-0.656
-0.242	-0.444
-0.239	-1.161
-0.249	-1.129
-0.227	-0.972
-0.234	-0.961
-0.229	-0.532
-0.227	-0.041
-0.223	-0.565
-0.216	-1.062
-0.215	-0.846
-0.201	-0.415
-0.211	-0.916
-0.204	-0.879
-0.203	-0.533
-0.199	-0.427
-0.194	-0.146
-0.197	0.101
-0.181	-0.242
-0.2	-0.326
-0.195	0.171
-0.2	0.626
-0.206	0.162
-0.198	0.315
-0.197	0.623
-0.195	0.552
-0.205	0.789
-0.209	1.195
-0.21	0.706
-0.21	0.128
-0.205	0.105
-0.216	-0.103
-0.212	-1.531
-0.219	-2.004
-0.22	-2.018
-0.225	-2.437
-0.217	-2.485
-0.214	-2.56
-0.225	-3.137
-0.229	-3.442
-0.231	-2.82
-0.229	-2.36
-0.233	-2.743
-0.233	-2.607
-0.223	-2.161
-0.234	-1.901
-0.236	-1.284
-0.237	-0.673
-0.238	-0.857
-0.234	-1.096
-0.243	-0.703
-0.242	-0.28
-0.245	-0.703
-0.249	-0.718
-0.249	-0.426
-0.255	-0.522
-0.238	-0.388
-0.256	0.037
-0.253	-0.222
-0.259	-0.503
-0.256	-0.133
-0.258	0.073
-0.25	-0.635
-0.24	-0.752
-0.249	-0.686
-0.248	-0.704
-0.243	-0.22
-0.244	0.233
-0.242	-0.028
-0.238	-0.452
-0.231	-0.151
-0.243	0.193
-0.239	-0.439
-0.242	-0.485
-0.244	-0.171
-0.242	-0.176
-0.247	0.002
-0.248	0.315
-0.25	0.007
-0.254	-0.33
-0.253	0.011
-0.258	0.366
-0.244	-0.305
-0.261	-0.349
-0.26	-0.209
-0.261	-0.233
-0.256	0.182
-0.26	0.559
-0.258	0.24
-0.24	-0.137
-0.249	0.087
-0.254	0.428
-0.253	-0.295
-0.251	-0.311
-0.249	-0.016
-0.255	-0.093
-0.244	0.189
-0.249	0.553
-0.247	0.345
-0.253	0.02
-0.255	0.186
-0.248	0.521
-0.261	-0.05
-0.261	-0.018
-0.269	0.048
-0.273	-0.11
-0.275	0.304
-0.278	0.835
-0.269	0.666
-0.287	0.343
-0.286	0.487
-0.287	0.776
-0.286	0.175
-0.288	0.215
-0.286	0.387
-0.273	0.428
-0.294	0.713
-0.289	1.03
-0.291	0.82
-0.293	0.455
-0.291	0.734
-0.294	0.972
-0.284	0.333
-0.295	0.308
-0.292	0.671
-0.295	0.656
-0.295	0.826
-0.287	1.188
-0.3	0.999
-0.3	0.72
-0.304	1.031
-0.309	1.278
-0.311	0.608
-0.312	0.582
-0.3	0.819
-0.316	0.801
-0.316	1.101
-0.316	1.375
-0.316	1.073
-0.311	0.735
-0.312	1.06
-0.298	1.337
-0.306	0.665
-0.306	0.583
-0.302	0.734
-0.297	0.721
-0.291	1.021
-0.293	1.261
-0.287	0.886
-0.289	0.563
-0.287	0.814
-0.284	1.019
-0.283	0.266
-0.275	0.273
-0.281	0.325
-0.28	0.261
-0.284	0.554
-0.282	0.809
-0.282	0.371
-0.276	-0.015
-0.27	0.115
-0.281	0.441
-0.278	-0.321
-0.278	-0.367
-0.276	-0.199
-0.271	-0.348
-0.267	-0.049
-0.254	0.4
-0.254	-0.015
-0.251	-0.538
-0.238	-0.358
-0.234	0.038
-0.222	-0.666
-0.216	-0.88
-0.204	-0.677
-0.198	-0.78
-0.197	-0.341
-0.184	0.139
-0.175	-0.12
-0.16	-0.57
-0.167	-0.276
-0.154	0.052
-0.146	-0.759
-0.143	-0.908
-0.134	-0.657
-0.133	-0.685
-0.111	-0.377
-0.121	0.07
-0.115	-0.25
-0.106	-0.642
-0.096	-0.452
-0.09	-0.089
-0.088	-0.714
-0.07	-0.781
-0.067	-0.635
-0.06	-0.669
-0.057	-0.404
-0.041	-0.098
-0.024	-0.327
-0.029	-0.637
-0.02	-0.347
-0.017	-0.073
-0.009	-0.653
-0.009	-0.762
-0.004	-0.637
0.013	-0.681
0.009	-0.247
0.007	0.09
0	-0.166
0.001	-0.458
0.001	-0.261
-0.005	-0.142
0.009	-0.901
-0.005	-0.879
-0.002	-0.562
-0.01	-0.715
-0.009	-0.365
-0.006	0.089
-0.006	-0.227
0	-0.669
-0.006	-0.452
-0.009	-0.043
0.001	-0.669
-0.001	-0.814
0.011	-0.607
0.004	-0.614
0.013	-0.355
0.01	0.023
0.01	-0.33
0.005	-0.573
0.011	-0.343
0.016	-0.052
0	-0.679
-0.002	-0.851
-0.005	-0.569
-0.012	-0.635
-0.022	-0.262
-0.029	0.057
-0.017	-0.3
-0.039	-0.636
-0.045	-0.35
-0.051	-0.001
-0.052	-0.67
-0.05	-0.913
-0.056	-0.677
-0.054	-0.736
-0.056	-0.442
-0.056	-0.055
-0.055	-0.321
-0.057	-0.647
-0.041	-0.448
-0.055	-0.09
-0.048	-0.635
-0.05	-0.775
-0.045	-0.72
-0.048	-0.779
-0.044	-0.406
-0.037	0
-0.048	-0.304
-0.051	-0.593
-0.055	-0.422
-0.062	-0.126
-0.062	-0.743
-0.071	-0.83
-0.065	-0.531
-0.082	-0.575
-0.084	-0.276
-0.085	0.155
-0.089	-0.103
-0.088	-0.454
-0.094	-0.3
-0.094	-0.043
-0.103	-0.665
-0.103	-0.747
-0.103	-0.524
-0.109	-0.488
-0.095	-0.15
-0.111	0.311
-0.104	0.063
-0.107	-0.239
-0.107	0.013
-0.111	0.375
-0.11	-0.289
-0.103	-0.31
-0.117	-0.049
-0.116	-0.131
-0.122	0.144
-0.126	0.586
-0.131	0.421
-0.137	0.074
-0.128	0.144
-0.149	0.436
-0.155	-0.321
-0.165	-0.554
-0.165	-0.419
-0.162	-0.469
-0.176	-0.256
-0.176	0.051
-0.181	-0.308
-0.183	-0.681
-0.187	-0.474
-0.193	-0.057
-0.183	-0.708
-0.193	-0.785
-0.192	-0.583
-0.19	-0.68
-0.193	-0.464
-0.187	-0.237
-0.189	-0.542
-0.181	-0.824
-0.194	-0.522
-0.194	-0.171
-0.195	-0.933
-0.206	-0.927
-0.205	-0.686
-0.21	-0.718
-0.208	-0.496
-0.222	-0.078
-0.221	-0.365
-0.234	-0.741
-0.234	-0.56
-0.234	-0.223
-0.24	-0.876
-0.237	-0.907
-0.239	-0.77
-0.237	-0.863
-0.229	-0.593
-0.228	-0.151
-0.215	-0.32
-0.225	-0.651
-0.221	-0.59
-0.216	-0.256
-0.215	-0.87
-0.214	-0.98
-0.206	-0.728
-0.195	-0.691
-0.2	-0.386
-0.204	-0.002
-0.198	-0.316
-0.197	-0.69
-0.193	-0.505
-0.195	-0.16
-0.187	-0.774
-0.189	-0.939
-0.194	-0.773
-0.199	-0.718
-0.195	-0.304
-0.188	0.178
-0.199	0.002
-0.2	-0.266
-0.204	-0.109
-0.201	0.27
-0.203	-0.365
-0.206	-0.459
-0.19	0.004
-0.201	0.142
-0.203	0.489
-0.2	1.1
-0.203	0.917
-0.198	0.596
-0.193	0.706
-0.181	1.04
-0.188	0.243
-0.186	0.071
-0.181	0.013
-0.19	-0.46
-0.182	-0.859
-0.186	-0.907
-0.176	-1.379
-0.19	-2.009
-0.194	-2.22
-0.194	-2.305
-0.197	-3.119
-0.188	-3.187
-0.205	-2.869
-0.204	-2.871
-0.214	-2.341
-0.214	-1.763
-0.215	-1.769
-0.212	-1.79
-0.195	-1.411
-0.214	-0.931
-0.209	-1.345
-0.209	-1.166
-0.205	-0.765
-0.209	-0.769
-0.209	-0.398
-0.195	0.16
-0.201	-0.085
-0.21	-0.493
-0.209	-0.299
-0.205	0.087
-0.208	-0.504
-0.217	-0.415
-0.216	-0.262
-0.22	-0.388
-0.222	-0.007
-0.226	0.358
-0.232	0.046
-0.217	-0.28
-0.233	-0.068
-0.24	0.32
-0.247	-0.388
-0.248	-0.479
-0.253	-0.227
-0.256	-0.2
-0.242	0.077
-0.254	0.508
-0.25	0.176
-0.253	-0.12
-0.253	0.006
-0.25	0.391
-0.249	-0.306
-0.242	-0.375
-0.248	-0.002
-0.245	-0.126
-0.243	-0.015
-0.242	0.436
-0.24	0.219
-0.24	-0.17
-0.238	0.037
-0.249	0.493
-0.244	-0.144
-0.245	-0.205
-0.244	0.092
-0.239	-0.055
-0.249	0.255
-0.25	0.66
-0.256	0.428
-0.26	0.117
-0.261	0.227
-0.266	0.68
-0.254	0.022
-0.273	-0.245
-0.273	0.001
-0.272	0.037
-0.278	0.399
-0.277	0.74
-0.28	0.442
-0.27	0.161
-0.278	0.341
-0.283	0.917
-0.281	0.22
-0.28	0.096
-0.267	0.348
-0.272	0.278
-0.27	0.57
-0.273	0.964
-0.271	0.643
-0.275	0.435
-0.272	0.691
-0.258	1.039
-0.273	0.405
-0.278	0.437
-0.278	0.637
-0.276	0.442
-0.281	0.803
-0.288	1.333
-0.275	1.133
-0.287	0.699
-0.293	0.729
-0.293	1.189
-0.291	0.499
-0.286	0.356
-0.284	0.673
-0.28	0.675
-0.283	0.928
-0.281	1.433
-0.282	1.228
-0.281	0.76
-0.27	0.935
-0.273	1.357
-0.27	0.762
-0.27	0.653
-0.266	0.79
-0.265	0.63
-0.261	0.864
-0.248	1.3
-0.255	1.062
-0.248	0.564
-0.25	0.697
-0.245	1.234
-0.244	0.524
-0.24	0.37
-0.234	0.583
-0.25	0.469
-0.244	0.709
-0.253	1.039
-0.251	0.636
-0.249	0.137
-0.256	0.26
-0.25	0.658
-0.26	-0.179
-0.267	-0.422
-0.265	-0.242
-0.27	-0.314
-0.255	0.01
-0.269	0.435
-0.261	0.063
-0.259	-0.341
-0.255	-0.28
-0.251	0.04
-0.247	-0.701
-0.229	-0.817
-0.234	-0.574
-0.223	-0.726
-0.21	-0.398
-0.204	0.024
-0.193	-0.269
-0.187	-0.663
-0.165	-0.476
-0.17	-0.167
-0.161	-0.937
-0.151	-0.973
-0.139	-0.586
-0.125	-0.668
-0.125	-0.345
-0.107	0.118
-0.103	-0.131
-0.101	-0.527
-0.099	-0.414
-0.089	-0.112
-0.073	-0.793
-0.076	-0.928
-0.073	-0.742
-0.067	-0.87
-0.06	-0.547
-0.054	-0.054
-0.044	-0.238
-0.023	-0.594
-0.029	-0.455
-0.024	-0.145
-0.015	-0.887
-0.006	-0.974
0.006	-0.656
0.007	-0.775
0.023	-0.419
0.023	-0.026
0.034	-0.35
0.039	-0.621
0.04	-0.45
0.056	-0.189
0.057	-0.782
0.062	-0.848
0.061	-0.615
0.071	-0.656
0.076	-0.392
0.079	0.048
0.083	-0.186
0.073	-0.576
0.078	-0.349
0.072	0.105
0.068	-0.645
0.068	-0.814
0.067	-0.562
0.076	-0.663
0.059	-0.469
0.055	-0.038
0.051	-0.205
0.049	-0.577
0.05	-0.479
0.046	0.032
0.056	-0.658
0.037	-0.873
0.041	-0.653
0.039	-0.767
0.037	-0.408
0.04	0.022
0.028	-0.219
0.038	-0.513
0.035	-0.398
0.029	-0.061
0.029	-0.769
0.032	-0.793
0.04	-0.521
0.024	-0.71
0.024	-0.466
0.022	0.033
0.024	-0.148
0.021	-0.549
0.015	-0.496
0.026	-0.045
0.006	-0.647
-0.002	-0.699
0	-0.469
-0.007	-0.594
-0.012	-0.319
-0.022	0.144
-0.015	-0.137
-0.026	-0.543
-0.033	-0.396
-0.045	-0.066
-0.045	-0.781
-0.044	-0.869
-0.057	-0.535
-0.057	-0.574
-0.061	-0.294
-0.065	0.184
-0.063	-0.013
-0.065	-0.405
-0.049	-0.249
-0.063	0.212
-0.066	-0.505
-0.068	-0.543
-0.062	-0.181
-0.065	-0.229
-0.061	0.035
-0.052	0.341
-0.063	0.09
-0.065	-0.166
-0.067	0.035
-0.067	0.386
-0.062	-0.256
-0.068	-0.326
-0.068	-0.004
-0.073	-0.061
-0.076	0.164
-0.081	0.577
-0.089	0.333
-0.084	-0.049
-0.099	-0.056
-0.105	0.37
-0.114	-0.394
-0.12	-0.61
-0.125	-0.386
-0.133	-0.485
-0.121	-0.344
-0.135	0.109
-0.139	-0.166
-0.143	-0.586
-0.148	-0.526
-0.148	-0.146
-0.142	-0.714
-0.134	-0.887
-0.143	-0.664
-0.144	-0.708
-0.14	-0.542
-0.14	-0.134
-0.139	-0.339
-0.138	-0.756
-0.128	-0.533
-0.135	-0.166
-0.137	-0.917
-0.135	-1.085
-0.133	-0.781
-0.12	-0.825
-0.137	-0.623
-0.131	-0.182
-0.133	-0.405
-0.134	-0.72
-0.138	-0.576
-0.138	-0.089
-0.128	-0.807
-0.145	-0.963
-0.15	-0.657
-0.153	-0.718
-0.159	-0.558
-0.161	-0.192
-0.167	-0.481
-0.157	-0.845
-0.172	-0.665
-0.172	-0.178
-0.172	-0.828
-0.168	-1.027
-0.165	-0.819
-0.168	-0.937
-0.164	-0.653
-0.168	-0.2
-0.162	-0.447
-0.164	-0.844
-0.161	-0.735
-0.143	-0.249
-0.149	-0.779
-0.146	-0.77
-0.142	-0.408
-0.142	-0.409
-0.134	-0.05
-0.133	0.398
-0.122	0.082
-0.126	-0.4
-0.126	-0.145
-0.129	0.575
-0.128	0.034
-0.125	0.026
-0.127	0.386
-0.125	0.447
-0.139	0.608
-0.137	0.927
-0.139	0.505
-0.14	-0.079
-0.138	-0.156
-0.143	-0.015
-0.142	-1.199
-0.148	-2.007
-0.146	-2.209
-0.146	-2.424
-0.146	-2.479
-0.137	-2.307
-0.149	-2.793
-0.143	-3.342
-0.148	-3.302
-0.15	-2.755
-0.159	-3.042
-0.151	-2.837
-0.14	-2.334
-0.153	-2.157
-0.154	-1.515
-0.151	-0.83
-0.15	-0.908
-0.149	-1.16
-0.148	-0.874
-0.14	-0.19
-0.151	-0.736
-0.154	-0.781
-0.155	-0.516
-0.153	-0.559
-0.146	-0.203
-0.155	0.171
-0.164	-0.067
-0.16	-0.438
-0.171	-0.271
-0.176	0.167
-0.181	-0.459
-0.168	-0.623
-0.187	-0.376
-0.187	-0.496
-0.192	-0.247
-0.189	0.197
-0.192	0.038
-0.197	-0.265
-0.183	-0.242
-0.197	0.345
-0.199	-0.319
-0.199	-0.481
-0.205	-0.323
-0.197	-0.419
-0.203	-0.139
-0.2	0.36
-0.206	0.096
-0.205	-0.245
-0.208	-0.106
-0.208	0.38
-0.198	-0.198
-0.21	-0.436
-0.208	-0.265
-0.206	-0.389
-0.21	-0.027
-0.21	0.533
-0.215	0.405
-0.21	0.015
-0.223	0.154
-0.227	0.659
-0.232	-0.051
-0.239	-0.374
-0.24	-0.26
-0.244	-0.266
-0.239	0.116
-0.259	0.599
-0.26	0.377
-0.264	0.04
-0.267	0.04
-0.262	0.518
-0.265	-0.062
-0.262	-0.243
-0.266	0.071
-0.266	-0.005
-0.264	0.338
-0.259	0.778
-0.25	0.574
-0.26	0.303
-0.249	0.448
-0.251	0.937
-0.256	0.154
-0.249	-0.079
-0.245	0.22
-0.234	0.135
-0.248	0.4
-0.249	0.779
-0.248	0.634
-0.249	0.378
-0.255	0.502
-0.251	0.894
-0.247	0.341
-0.256	0.282
-0.259	0.452
-0.267	0.408
-0.27	0.726
-0.267	1.201
-0.282	0.898
-0.278	0.486
-0.289	0.68
-0.295	1.084
-0.3	0.426
-0.298	0.281
-0.297	0.546
-0.305	0.625
-0.31	0.84
-0.309	1.262
-0.308	0.948
-0.308	0.535
-0.306	0.542
-0.288	1.027
-0.299	0.404
-0.298	0.271
-0.298	0.508
-0.288	0.377
-0.287	0.658
-0.278	1.061
-0.271	0.789
-0.27	0.416
-0.269	0.396
-0.264	0.916
-0.26	0.197
-0.249	-0.038
-0.251	0.149
-0.25	0.043
-0.253	0.217
-0.249	0.627
-0.244	0.371
-0.248	-0.183
-0.236	-0.148
-0.245	0.352
-0.242	-0.338
-0.244	-0.537
-0.248	-0.261
-0.242	-0.377
-0.247	-0.266
-0.227	0.046
-0.234	-0.311
-0.231	-0.659
-0.232	-0.586
-0.226	-0.111
-0.217	-0.758
-0.214	-0.98
-0.195	-0.648
-0.197	-0.734
-0.188	-0.596
-0.173	-0.154
-0.159	-0.409
-0.142	-0.656
-0.139	-0.614
-0.125	-0.156
-0.112	-0.781
-0.105	-1.056
-0.094	-0.728
-0.074	-0.806
-0.059	-0.533
-0.066	-0.115
-0.057	-0.184
-0.049	-0.52
-0.044	-0.63
-0.04	-0.229
-0.037	-0.854
-0.022	-0.916
-0.026	-0.575
-0.027	-0.671
-0.026	-0.45
-0.022	-0.022
-0.021	-0.178
-0.023	-0.46
-0.012	-0.405
-0.023	-0.101
-0.016	-0.802
-0.017	-0.959
-0.015	-0.703
0.001	-0.822
-0.002	-0.549
-0.001	-0.073
0.006	-0.315
0.012	-0.687
0.016	-0.629
0.021	-0.103
0.039	-0.674
0.031	-0.868
0.037	-0.698
0.034	-0.872
0.04	-0.566
0.043	0.056
0.045	-0.203
0.052	-0.608
0.051	-0.552
0.051	0.052
0.054	-0.565
0.05	-0.846
0.054	-0.717
0.044	-0.835
0.04	-0.489
0.031	-0.018
0.029	-0.164
0.023	-0.656
0.017	-0.649
0.02	-0.017
0.004	-0.56
-0.002	-0.848
-0.006	-0.636
-0.018	-0.674
-0.018	-0.454
-0.024	-0.059
-0.015	-0.249
-0.039	-0.576
-0.04	-0.527
-0.045	-0.079
-0.049	-0.771
-0.056	-0.947
-0.054	-0.702
-0.045	-0.748
-0.054	-0.515
-0.059	-0.026
-0.056	-0.193
-0.06	-0.505
-0.049	-0.51
-0.063	0.076
-0.057	-0.582
-0.061	-0.813
-0.068	-0.646
-0.073	-0.688
-0.067	-0.381
-0.06	0.07
-0.081	-0.216
-0.083	-0.631
-0.085	-0.481
-0.09	-0.012
-0.099	-0.647
-0.104	-0.746
-0.093	-0.487
-0.117	-0.612
-0.122	-0.254
-0.126	0.369
-0.129	0.295
-0.138	-0.116
-0.149	-0.072
-0.148	0.42
-0.159	-0.178
-0.157	-0.333
-0.167	-0.079
-0.165	-0.245
-0.159	0.099
-0.166	0.593
-0.167	0.259
-0.168	-0.112
-0.167	0.011
-0.167	0.549
-0.168	-0.156
-0.153	-0.431
-0.16	-0.33
-0.159	-0.58
-0.164	-0.347
-0.16	0.116
-0.159	-0.12
-0.159	-0.568
-0.145	-0.593
-0.155	-0.06
-0.155	-0.71
-0.153	-0.942
-0.157	-0.71
-0.151	-0.784
-0.153	-0.533
-0.153	-0.032
-0.16	-0.271
-0.156	-0.76
-0.162	-0.762
-0.164	-0.16
-0.164	-0.789
-0.172	-0.959
-0.176	-0.736
-0.184	-0.75
-0.192	-0.601
-0.199	-0.14
-0.2	-0.273
-0.197	-0.658
-0.209	-0.609
-0.21	-0.25
-0.215	-0.924
-0.219	-1.118
-0.215	-0.89
-0.212	-0.907
-0.204	-0.685
-0.214	-0.266
-0.206	-0.432
-0.204	-0.748
-0.206	-0.721
-0.197	-0.266
-0.195	-0.89
-0.19	-1.196
-0.186	-0.879
-0.187	-0.959
-0.182	-0.729
-0.173	-0.243
-0.157	-0.428
-0.171	-0.735
-0.164	-0.834
-0.166	-0.271
-0.165	-0.884
-0.164	-1.19
-0.164	-0.913
-0.15	-0.824
-0.162	-0.302
-0.165	0.22
-0.16	0.065
-0.162	-0.3
-0.166	-0.248
-0.166	0.211
-0.161	-0.42
-0.177	-0.487
-0.181	0.04
-0.178	0.131
-0.188	0.487
-0.184	1.01
-0.193	0.854
-0.19	0.312
-0.195	0.153
-0.197	0.503
-0.2	-0.31
-0.2	-0.669
-0.192	-0.712
-0.203	-1.387
-0.198	-1.879
-0.198	-1.792
-0.198	-2.202
-0.195	-2.892
-0.192	-3.215
-0.175	-2.805
-0.188	-3.431
-0.187	-3.578
-0.184	-3.072
-0.186	-2.833
-0.179	-2.411
-0.179	-1.691
-0.171	-1.486
-0.177	-1.543
-0.181	-1.279
-0.178	-0.677
-0.175	-1.138
-0.166	-1.146
-0.173	-0.818
-0.17	-0.977
-0.167	-0.565
-0.165	-0.04
-0.162	-0.206
-0.168	-0.479
-0.153	-0.361
-0.166	0.011
-0.172	-0.552
-0.167	-0.732
-0.167	-0.363
-0.173	-0.505
-0.177	-0.277
-0.166	0.194
-0.179	0.071
-0.183	-0.262
-0.19	-0.287
-0.19	0.282
-0.193	-0.349
-0.2	-0.57
-0.192	-0.436
-0.205	-0.576
-0.204	-0.168
-0.212	0.36
-0.217	0.204
-0.212	-0.173
-0.216	-0.275
-0.221	0.282
-0.229	-0.299
-0.222	-0.563
-0.221	-0.281
-0.22	-0.393
-0.21	-0.156
-0.221	0.414
-0.217	0.186
-0.223	-0.234
-0.216	-0.176
-0.211	0.367
-0.211	-0.222
-0.199	-0.443
-0.206	-0.264
-0.204	-0.381
-0.205	-0.071
-0.201	0.432
-0.193	0.276
-0.193	-0.027
-0.187	-0.007
-0.195	0.471
-0.192	-0.145
-0.188	-0.369
-0.194	0.012
-0.186	0.006
-0.192	0.225
-0.195	0.701
-0.198	0.619
-0.199	0.273
-0.203	0.192
-0.201	0.703
-0.198	0.162
-0.21	-0.055
-0.21	0.188
-0.219	0.26
-0.227	0.468
-0.227	0.929
-0.229	0.808
-0.225	0.521
-0.237	0.653
-0.245	0.964
-0.244	0.37
-0.247	0.219
-0.249	0.542
-0.251	0.453
-0.249	0.612
-0.25	1.105
-0.259	0.997
-0.256	0.635
-0.247	0.558
-0.239	1.173
-0.25	0.643
-0.243	0.428
-0.239	0.579
-0.238	0.352
-0.232	0.699
-0.231	1.232
-0.214	1.051
-0.223	0.643
-0.221	0.642
-0.22	1.083
-0.215	0.5
-0.217	0.365
-0.22	0.634
-0.204	0.525
-0.214	0.737
-0.212	1.243
-0.215	1.132
-0.211	0.762
-0.211	0.699
-0.221	1.118
-0.221	0.459
-0.225	0.232
-0.226	0.397
-0.231	0.118
-0.234	0.31
-0.219	0.829
-0.233	0.591
-0.233	0.057
-0.24	0.028
-0.237	0.453
-0.243	-0.14
-0.239	-0.378
-0.223	-0.225
-0.226	-0.427
-0.225	-0.067
-0.225	0.352
-0.216	0.05
-0.216	-0.345
-0.209	-0.339
-0.197	0.189
-0.204	-0.554
-0.194	-0.941
-0.192	-0.648
-0.182	-0.665
-0.168	-0.487
-0.168	-0.04
-0.162	-0.15
-0.157	-0.449
-0.146	-0.525
-0.135	0.002
-0.126	-0.659
-0.11	-1.049
-0.105	-0.709
-0.099	-0.802
-0.092	-0.602
-0.083	-0.154
-0.078	-0.109
-0.071	-0.374
-0.056	-0.485
-0.059	-0.009
-0.057	-0.638
-0.052	-0.95
-0.054	-0.752
-0.044	-0.717
-0.043	-0.513
-0.034	-0.111
-0.04	-0.178
-0.037	-0.508
-0.034	-0.477
-0.031	0.027
-0.018	-0.621
-0.026	-0.808
-0.016	-0.54
-0.015	-0.605
-0.015	-0.557
-0.004	-0.092
0.001	-0.107
0.016	-0.472
0.011	-0.585
0.016	-0.153
0.018	-0.692
0.024	-0.985
0.023	-0.613
0.029	-0.59
0.046	-0.47
0.038	-0.05
0.039	-0.193
0.046	-0.553
0.043	-0.593
0.05	-0.088
0.044	-0.641
0.05	-0.841
0.045	-0.543
0.046	-0.762
0.043	-0.482
0.048	-0.017
0.05	-0.101
0.032	-0.371
0.032	-0.524
0.023	-0.066
0.02	-0.71
0.012	-0.952
0.005	-0.67
0.023	-0.702
0	-0.533
0	-0.029
-0.004	-0.028
-0.002	-0.472
-0.006	-0.692
-0.011	-0.267
-0.001	-0.73
-0.016	-0.933
-0.016	-0.71
-0.023	-0.696
-0.021	-0.592
-0.015	-0.071
-0.023	-0.138
-0.02	-0.544
-0.023	-0.717
-0.026	-0.149
-0.029	-0.612
-0.027	-0.912
-0.018	-0.682
-0.023	-0.8
-0.022	-0.565
-0.021	-0.1
-0.02	-0.133
-0.022	-0.426
-0.023	-0.571
-0.02	-0.159
-0.023	-0.576
-0.024	-0.913
-0.026	-0.679
-0.034	-0.69
-0.033	-0.347
-0.037	0.139
-0.035	0.082
-0.048	-0.157
-0.057	-0.083
-0.065	0.33
-0.07	-0.291
-0.068	-0.452
-0.079	-0.157
-0.081	-0.326
-0.092	-0.078
-0.093	0.474
-0.095	0.371
-0.1	-0.104
-0.09	-0.229
-0.105	0.408
-0.105	-0.074
-0.106	-0.284
-0.107	-0.095
-0.11	-0.345
-0.105	-0.206
-0.098	0.135
-0.112	-0.041
-0.109	-0.568
-0.109	-0.609
-0.112	-0.156
-0.112	-0.754
-0.117	-1.063
-0.112	-0.867
-0.127	-0.93
-0.131	-0.734
-0.131	-0.269
-0.134	-0.36
-0.132	-0.692
-0.14	-0.692
-0.145	-0.043
-0.149	-0.635
-0.157	-1.057
-0.164	-0.895
-0.165	-0.941
-0.155	-0.713
-0.171	-0.309
-0.178	-0.337
-0.179	-0.739
-0.183	-0.957
-0.183	-0.331
-0.188	-0.947
-0.175	-1.169
-0.188	-0.905
-0.189	-0.944
-0.194	-0.704
-0.192	-0.248
-0.182	-0.428
-0.186	-0.909
-0.176	-0.851
-0.182	-0.182
-0.177	-0.992
-0.175	-1.276
-0.175	-0.957
-0.164	-0.992
-0.168	-0.834
-0.166	-0.326
-0.168	-0.359
-0.161	-0.695
-0.157	-0.874
-0.161	-0.344
-0.143	-0.847
-0.155	-1.119
-0.153	-0.889
-0.159	-0.919
-0.157	-0.646
-0.159	-0.028
-0.157	-0.01
-0.151	-0.247
-0.159	-0.309
-0.161	0.179
-0.164	-0.422
-0.166	-0.632
-0.166	-0.15
-0.168	-0.068
-0.165	0.094
-0.175	0.676
-0.176	0.697
-0.178	0.327
-0.179	0.297
-0.172	0.984
-0.179	0.221
-0.181	-0.273
-0.182	-0.182
-0.182	-0.677
-0.177	-1.114
-0.175	-1.166
-0.16	-1.584
-0.175	-2.267
-0.173	-2.86
-0.175	-2.644
-0.168	-3.252
-0.173	-3.634
-0.172	-3.304
-0.159	-3.208
-0.17	-2.694
-0.167	-2.029
-0.168	-2.018
-0.17	-2.069
-0.167	-1.777
-0.178	-0.963
-0.17	-1.211
-0.176	-1.289
-0.177	-0.851
-0.181	-0.861
-0.178	-0.581
-0.171	-0.018
-0.187	0.031
-0.188	-0.304
-0.19	-0.463
-0.195	0.055
-0.197	-0.419
-0.2	-0.737
-0.186	-0.532
-0.201	-0.648
-0.211	-0.391
-0.214	0.199
-0.214	0.023
-0.216	-0.408
-0.212	-0.485
-0.208	0.164
-0.211	-0.376
-0.206	-0.62
-0.208	-0.422
-0.208	-0.468
-0.192	-0.171
-0.2	0.358
-0.194	0.173
-0.198	-0.337
-0.195	-0.394
-0.194	0.195
-0.193	-0.305
-0.178	-0.52
-0.19	-0.232
-0.193	-0.618
-0.195	-0.341
-0.193	0.336
-0.192	0.262
-0.199	-0.041
-0.187	-0.054
-0.2	0.475
-0.203	-0.179
-0.206	-0.409
-0.212	-0.123
-0.216	-0.208
-0.222	0.073
-0.222	0.557
-0.236	0.455
-0.236	0.1
-0.25	-0.028
-0.254	0.548
-0.248	0.09
-0.256	-0.229
-0.26	0.035
-0.27	0
-0.269	0.215
-0.266	0.736
-0.267	0.63
-0.254	0.208
-0.264	0.071
-0.264	0.679
-0.265	0.215
-0.26	-0.046
-0.262	0.309
-0.251	0.347
-0.238	0.463
-0.251	0.98
-0.247	0.8
-0.24	0.511
-0.243	0.469
-0.236	0.981
-0.242	0.448
-0.231	0.17
-0.238	0.477
-0.233	0.573
-0.233	0.773
-0.231	1.114
-0.221	0.97
-0.234	0.645
-0.231	0.614
-0.232	1.226
-0.239	0.697
-0.242	0.472
-0.249	0.641
-0.233	0.543
-0.251	0.721
-0.258	1.217
-0.256	1.285
-0.26	0.844
-0.269	0.728
-0.273	1.283
-0.262	0.764
-0.275	0.553
-0.28	0.734
-0.281	0.686
-0.278	0.919
-0.276	1.421
-0.28	1.262
-0.276	0.839
-0.277	0.594
-0.278	1.169
-0.282	0.703
-0.272	0.404
-0.259	0.57
-0.264	0.255
-0.265	0.374
-0.258	0.916
-0.255	0.823
-0.251	0.315
-0.253	0.021
-0.232	0.607
-0.238	0.107
-0.232	-0.267
-0.233	-0.044
-0.225	-0.315
-0.219	-0.179
-0.216	0.281
-0.211	0.269
-0.21	-0.092
-0.206	-0.193
-0.206	0.209
-0.204	-0.322
-0.194	-0.641
-0.201	-0.409
-0.197	-0.432
-0.197	-0.28
-0.193	0.243
-0.19	0.156
-0.188	-0.489
-0.175	-0.629
-0.175	0.043
-0.171	-0.586
-0.17	-0.908
-0.164	-0.751
-0.157	-0.811
-0.151	-0.489
-0.133	0.049
-0.144	0.016
-0.134	-0.45
-0.129	-0.58
-0.118	0.001
-0.105	-0.487
-0.096	-0.925
-0.083	-0.757
-0.083	-0.844
-0.071	-0.553
-0.06	-0.051
-0.05	-0.098
-0.039	-0.474
-0.032	-0.793
-0.023	-0.2
-0.018	-0.47
-0.01	-0.773
0	-0.515
0	-0.613
0.017	-0.513
0.006	-0.021
0.022	-0.099
0.024	-0.433
0.027	-0.544
0.033	0.021
0.038	-0.514
0.051	-0.804
0.041	-0.553
0.039	-0.581
0.038	-0.309
0.037	0.159
0.038	0.121
0.031	-0.17
0.035	-0.355
0.022	0.044
0.015	-0.56
0.017	-0.808
0.005	-0.476
0.01	-0.624
-0.001	-0.536
-0.006	-0.034
-0.011	-0.067
-0.017	-0.238
-0.022	-0.408
-0.022	0.072
-0.015	-0.448
-0.033	-0.88
-0.031	-0.729
-0.038	-0.869
-0.038	-0.599
-0.041	0.024
-0.043	-0.028
-0.033	-0.427
-0.044	-0.548
-0.049	0.04
-0.049	-0.51
-0.048	-0.854
-0.049	-0.504
-0.054	-0.63
-0.051	-0.469
-0.057	0.117
-0.056	0.026
-0.063	-0.483
-0.063	-0.419
-0.057	0.155
-0.07	-0.444
-0.071	-0.742
-0.071	-0.477
-0.078	-0.428
-0.083	-0.321
-0.085	0.109
-0.081	0.04
-0.098	-0.223
-0.105	-0.27
-0.112	0.277
-0.112	-0.376
-0.118	-0.67
-0.125	-0.416
-0.118	-0.605
-0.132	-0.305
-0.133	0.266
-0.14	0.197
-0.139	-0.225
-0.129	-0.288
-0.143	0.396
-0.14	-0.055
-0.142	-0.405
-0.139	-0.229
-0.14	-0.206
-0.138	0.061
-0.125	0.466
-0.133	0.315
-0.127	-0.063
-0.127	-0.142
-0.12	0.521
-0.12	0.112
-0.122	-0.299
-0.106	-0.204
-0.114	-0.306
-0.115	-0.106
-0.12	0.367
-0.121	0.261
-0.116	-0.162
-0.122	-0.298
-0.115	0.078
-0.122	-0.492
-0.125	-0.815
-0.126	-0.437
-0.129	-0.735
-0.128	-0.632
-0.137	-0.005
-0.137	-0.013
-0.148	-0.403
-0.151	-0.459
-0.154	0.081
-0.157	-0.463
-0.149	-0.905
-0.17	-0.709
-0.171	-0.815
-0.181	-0.502
-0.188	-0.044
-0.187	-0.134
-0.19	-0.526
-0.183	-0.669
-0.195	-0.096
-0.193	-0.549
-0.192	-1.022
-0.192	-0.796
-0.199	-0.798
-0.186	-0.53
-0.182	0.032
-0.187	-0.011
-0.19	-0.493
-0.188	-0.688
-0.183	-0.244
-0.173	-0.778
-0.183	-1.123
-0.176	-0.852
-0.171	-0.876
-0.171	-0.609
-0.166	-0.041
-0.16	-0.134
-0.145	-0.568
-0.159	-0.774
-0.151	-0.072
-0.153	-0.59
-0.156	-0.97
-0.16	-0.679
-0.16	-0.784
-0.142	-0.614
-0.164	0.023
-0.162	0.093
-0.167	-0.167
-0.166	-0.319
-0.17	0.294
-0.179	-0.223
-0.177	-0.594
-0.184	-0.333
-0.186	-0.305
-0.19	0.023
-0.187	0.704
-0.176	0.883
-0.192	0.605
-0.193	0.601
-0.189	1.239
-0.189	0.707
-0.187	0.238
-0.188	0.186
-0.171	0.026
-0.181	0.001
-0.181	-0.04
-0.173	-0.773
-0.17	-1.653
-0.171	-1.925
-0.167	-1.617
-0.149	-2.469
-0.15	-3.25
-0.145	-3.234
-0.139	-3.275
-0.139	-2.974
-0.131	-2.222
-0.127	-2.047
-0.121	-2.22
-0.121	-2.177
-0.122	-1.222
-0.118	-1.482
-0.114	-1.581
-0.101	-1.106
-0.111	-1.01
-0.114	-0.752
-0.118	-0.134
-0.115	0.083
-0.117	-0.187
-0.123	-0.262
-0.11	0.334
-0.127	-0.227
-0.127	-0.562
-0.131	-0.245
-0.135	-0.393
-0.133	-0.278
-0.139	0.254
-0.134	0.343
-0.149	-0.013
-0.148	-0.255
-0.153	0.4
-0.154	0.051
-0.15	-0.31
-0.159	-0.195
-0.159	-0.405
-0.167	-0.215
-0.165	0.295
-0.166	0.238
-0.165	0.017
-0.155	-0.22
-0.164	0.317
-0.156	0.044
-0.156	-0.188
-0.155	-0.074
-0.155	-0.272
-0.149	-0.062
-0.139	0.463
-0.15	0.396
-0.146	-0.027
-0.142	0.055
-0.142	0.713
-0.138	0.131
-0.146	-0.292
-0.142	0
-0.153	-0.016
-0.157	0.098
-0.161	0.659
-0.16	0.685
-0.155	0.286
-0.164	0.14
-0.165	0.769
-0.175	0.341
-0.175	0.093
-0.178	0.259
-0.181	0.195
-0.167	0.283
-0.187	0.771
-0.184	0.868
-0.186	0.437
-0.187	0.177
-0.183	0.875
-0.188	0.466
-0.172	0.155
-0.182	0.392
-0.183	0.319
-0.183	0.592
-0.176	1.086
-0.177	0.917
-0.178	0.369
-0.161	0.3
-0.162	1.035
-0.167	0.662
-0.166	0.376
-0.161	0.607
-0.153	0.511
-0.161	0.676
-0.159	1.202
-0.159	1.233
-0.161	0.914
-0.167	0.735
-0.164	1.248
-0.157	0.848
-0.168	0.576
-0.171	0.837
-0.172	0.751
-0.177	0.95
-0.179	1.456
-0.186	1.45
-0.175	1.084
-0.19	0.873
-0.197	1.541
-0.197	1.102
-0.197	0.758
-0.194	0.895
-0.205	0.691
-0.203	0.897
-0.208	1.434
-0.208	1.459
-0.21	1.085
-0.21	0.856
-0.194	1.39
-0.203	0.875
-0.199	0.515
-0.195	0.652
-0.188	0.526
-0.184	0.702
-0.177	1.108
-0.16	1.013
-0.166	0.526
-0.162	0.327
-0.16	0.936
-0.15	0.376
-0.144	-0.099
-0.146	0.177
-0.121	-0.002
-0.129	-0.012
-0.128	0.341
-0.125	0.341
-0.125	-0.062
-0.116	-0.204
-0.112	0.265
-0.105	-0.258
-0.107	-0.652
-0.093	-0.388
-0.088	-0.513
-0.084	-0.312
-0.072	0.094
-0.076	0.033
-0.068	-0.277
-0.072	-0.397
-0.062	0.12
-0.056	-0.391
-0.052	-0.731
-0.041	-0.485
-0.051	-0.541
-0.046	-0.404
-0.051	0.024
-0.044	-0.078
-0.04	-0.46
-0.035	-0.463
-0.024	0.099
-0.033	-0.463
-0.027	-0.842
-0.02	-0.686
-0.021	-0.673
-0.01	-0.441
-0.006	0.115
0	-0.031
0.013	-0.575
0.016	-0.602
0.023	-0.027
0.037	-0.447
0.055	-0.819
0.05	-0.621
0.061	-0.649
0.066	-0.474
0.074	0.073
0.081	-0.002
0.089	-0.464
0.101	-0.488
0.092	0.127
0.096	-0.35
0.103	-0.695
0.11	-0.562
0.1	-0.603
0.106	-0.439
0.114	0.057
0.107	0.114
0.103	-0.205
0.098	-0.363
0.103	0.116
0.107	-0.337
0.087	-0.708
0.092	-0.474
0.085	-0.532
0.082	-0.474
0.077	0.121
0.074	0.176
0.087	-0.385
0.072	-0.62
0.07	0.2
0.068	-0.187
0.066	-0.792
0.065	-0.604
0.065	-0.596
0.078	-0.377
0.065	-0.076
0.068	-0.151
0.065	-0.464
0.068	-0.577
0.068	-0.015
0.063	-0.568
0.071	-0.879
0.068	-0.507
0.068	-0.51
0.063	-0.393
0.063	0.051
0.081	0.004
0.066	-0.365
0.068	-0.571
0.063	-0.002
0.065	-0.392
0.059	-0.803
0.057	-0.56
0.072	-0.642
0.054	-0.449
0.05	0.144
0.045	0.184
0.043	-0.205
0.035	-0.63
0.029	0.088
0.037	-0.353
0.016	-0.656
0.013	-0.493
0.004	-0.56
0	-0.256
-0.001	0.342
-0.018	0.345
-0.021	0.021
-0.031	-0.067
-0.039	0.544
-0.044	0.14
-0.052	-0.258
-0.044	-0.04
-0.065	-0.259
-0.067	-0.038
-0.077	0.543
-0.083	0.652
-0.088	0.304
-0.098	0.001
-0.082	0.524
-0.096	0.131
-0.101	-0.265
-0.103	-0.054
-0.103	-0.295
-0.105	-0.199
-0.104	0.242
-0.1	0.144
-0.106	-0.359
-0.107	-0.599
-0.11	0.056
-0.107	-0.377
-0.101	-0.726
-0.105	-0.597
-0.103	-0.74
-0.106	-0.625
-0.104	-0.215
-0.107	-0.17
-0.112	-0.526
-0.099	-0.648
-0.106	-0.135
-0.112	-0.587
-0.115	-0.919
-0.123	-0.763
-0.12	-0.844
-0.126	-0.682
-0.114	-0.138
-0.131	-0.156
-0.129	-0.592
-0.133	-0.814
-0.145	-0.248
-0.144	-0.642
-0.15	-0.953
-0.149	-0.68
-0.161	-0.833
-0.168	-0.597
-0.171	-0.04
-0.179	-0.1
-0.175	-0.704
-0.181	-0.984
-0.177	-0.303
-0.187	-0.664
-0.184	-1.064
-0.181	-0.901
-0.179	-0.906
-0.164	-0.685
-0.176	-0.154
-0.17	-0.117
-0.164	-0.541
-0.167	-0.751
-0.161	-0.264
-0.159	-0.793
-0.138	-1.241
-0.156	-0.876
-0.154	-0.884
-0.155	-0.583
-0.148	0.009
-0.148	0.116
-0.155	-0.273
-0.144	-0.499
-0.16	0.178
-0.165	-0.171
-0.168	-0.448
-0.166	-0.012
-0.165	0.134
-0.178	0.316
-0.178	0.863
-0.179	0.925
-0.183	0.308
-0.198	0.049
-0.199	0.488
-0.186	-0.199
-0.205	-0.768
-0.201	-0.743
-0.204	-1.193
-0.206	-1.857
-0.208	-1.945
-0.208	-2.004
-0.194	-2.532
-0.2	-3.07
-0.201	-2.917
-0.204	-3.491
-0.199	-3.777
-0.188	-3.241
-0.193	-2.954
-0.186	-2.51
-0.193	-1.754
-0.187	-1.486
-0.189	-1.42
-0.195	-1.36
-0.188	-0.652
-0.19	-0.95
-0.189	-1.2
-0.194	-0.797
-0.194	-0.774
-0.195	-0.487
-0.2	0.073
-0.193	0.117
-0.21	-0.267
-0.209	-0.38
-0.221	0.176
-0.226	-0.293
-0.231	-0.586
-0.239	-0.328
-0.232	-0.377
-0.249	-0.356
-0.256	0.109
-0.261	0.179
-0.271	-0.137
-0.271	-0.32
-0.275	0.258
-0.275	-0.239
-0.282	-0.596
-0.284	-0.304
-0.283	-0.35
-0.282	-0.054
-0.27	0.343
-0.281	0.326
-0.277	-0.048
-0.277	-0.323
-0.281	0.336
-0.28	-0.063
-0.281	-0.527
-0.264	-0.331
-0.283	-0.269
-0.286	-0.094
-0.287	0.391
-0.284	0.331
-0.289	0.032
-0.289	-0.006
-0.28	0.577
-0.297	0.073
-0.299	-0.326
-0.299	-0.073
-0.299	-0.103
-0.297	0.05
-0.308	0.551
-0.306	0.57
-0.308	0.171
-0.315	0.062
-0.317	0.664
-0.321	0.234
-0.31	-0.297
-0.327	0.001
-0.334	0.015
-0.337	0.198
-0.337	0.709
-0.342	0.804
-0.347	0.464
-0.333	0.248
-0.345	0.824
-0.348	0.309
-0.352	-0.023
-0.35	0.349
-0.35	0.334
-0.352	0.309
-0.339	0.767
-0.347	0.876
-0.343	0.525
-0.343	0.449
-0.344	1.155
-0.333	0.564
-0.336	-0.076
-0.333	0.2
-0.332	0.234
-0.326	0.503
-0.322	1.08
-0.32	1.088
-0.306	0.697
-0.319	0.552
-0.314	1.177
-0.317	0.813
-0.312	0.364
-0.312	0.625
-0.309	0.591
-0.298	0.641
-0.309	1.147
-0.309	1.2
-0.312	0.898
-0.317	0.69
-0.31	1.316
-0.317	0.885
-0.312	0.422
-0.322	0.69
-0.316	0.623
-0.325	0.767
-0.327	1.205
-0.321	1.163
-0.332	0.741
-0.331	0.614
-0.338	1.24
-0.339	0.753
-0.336	0.225
-0.337	0.427
-0.323	0.194
-0.336	0.286
-0.338	0.709
-0.333	0.558
-0.334	0.104
-0.332	-0.095
-0.323	0.413
-0.31	-0.023
-0.316	-0.394
-0.311	-0.217
-0.308	-0.311
-0.306	-0.232
-0.293	0.208
-0.286	0.103
-0.272	-0.288
-0.277	-0.409
-0.264	0.155
-0.249	-0.363
-0.245	-0.925
-0.227	-0.825
-0.229	-0.862
-0.217	-0.592
-0.214	-0.066
-0.205	-0.071
-0.194	-0.525
-0.19	-0.609
-0.171	0.001
-0.173	-0.491
-0.161	-0.908
-0.157	-0.63
-0.156	-0.626
-0.145	-0.45
-0.138	-0.041
-0.126	0.022
-0.137	-0.392
-0.128	-0.596
-0.126	0.027
-0.125	-0.372
-0.118	-0.787
-0.122	-0.623
-0.115	-0.746
-0.123	-0.469
-0.121	-0.06
-0.114	-0.089
-0.114	-0.52
-0.101	-0.647
-0.105	0.012
-0.1	-0.454
-0.1	-0.822
-0.098	-0.579
-0.09	-0.746
-0.083	-0.648
-0.07	-0.144
-0.081	-0.125
-0.073	-0.548
-0.066	-0.619
-0.068	0.001
-0.062	-0.447
-0.062	-0.853
-0.046	-0.767
-0.055	-0.839
-0.052	-0.612
-0.049	-0.048
-0.039	-0.07
-0.034	-0.527
-0.037	-0.82
-0.029	-0.214
-0.033	-0.555
-0.032	-0.991
-0.037	-0.75
-0.035	-0.874
-0.024	-0.666
-0.04	-0.123
-0.041	-0.103
-0.041	-0.482
-0.046	-0.675
-0.057	-0.037
-0.057	-0.452
-0.054	-0.89
-0.066	-0.592
-0.077	-0.728
-0.081	-0.486
-0.085	-0.07
-0.088	-0.118
-0.094	-0.475
-0.09	-0.823
-0.101	-0.222
-0.106	-0.583
-0.105	-1.035
-0.105	-0.762
-0.096	-0.746
-0.1	-0.651
-0.099	-0.262
-0.103	-0.175
-0.098	-0.488
-0.098	-0.629
-0.098	-0.137
-0.088	-0.616
-0.096	-0.885
-0.09	-0.664
-0.094	-0.724
-0.093	-0.616
-0.092	-0.148
-0.093	-0.105
-0.085	-0.474
-0.094	-0.638
-0.095	-0.149
-0.098	-0.52
-0.101	-0.84
-0.104	-0.535
-0.11	-0.489
-0.106	-0.249
-0.126	0.269
-0.122	0.287
-0.126	-0.122
-0.132	-0.258
-0.123	0.431
-0.133	0.033
-0.131	-0.417
-0.143	-0.233
-0.145	-0.408
-0.142	-0.155
-0.143	0.439
-0.133	0.433
-0.149	-0.021
-0.145	-0.292
-0.143	0.308
-0.143	-0.116
-0.138	-0.405
-0.138	-0.155
-0.128	-0.303
-0.143	-0.46
-0.14	-0.09
-0.139	-0.077
-0.138	-0.524
-0.138	-0.674
-0.138	-0.153
-0.129	-0.474
-0.135	-0.923
-0.138	-0.895
-0.132	-0.93
-0.133	-0.701
-0.122	-0.149
-0.132	-0.107
-0.127	-0.525
-0.127	-0.759
-0.128	-0.317
-0.128	-0.853
-0.126	-1.26
-0.115	-1.012
-0.132	-1.09
-0.132	-0.861
-0.135	-0.353
-0.138	-0.311
-0.144	-0.704
-0.151	-0.913
-0.139	-0.327
-0.162	-0.686
-0.168	-1.168
-0.175	-1.049
-0.177	-1.005
-0.179	-0.859
-0.189	-0.376
-0.188	-0.343
-0.193	-0.71
-0.195	-0.9
-0.198	-0.376
-0.194	-0.751
-0.189	-1.162
-0.199	-0.969
-0.199	-1.089
-0.195	-0.809
-0.197	-0.309
-0.197	-0.308
-0.188	-0.778
-0.176	-1.049
-0.182	-0.486
-0.19	-0.846
-0.176	-1.244
-0.173	-1.047
-0.171	-0.964
-0.165	-0.562
-0.149	0.092
-0.161	0.117
-0.155	-0.344
-0.15	-0.594
-0.151	0.074
-0.14	-0.187
-0.142	-0.476
-0.131	-0.038
-0.127	-0.039
-0.125	0.2
-0.122	0.708
-0.112	0.743
-0.099	0.204
-0.105	-0.221
-0.101	0.249
-0.1	-0.201
-0.1	-0.911
-0.101	-1.187
-0.104	-2.013
-0.087	-2.333
-0.1	-1.959
-0.109	-2.063
-0.112	-2.775
-0.114	-3.425
-0.117	-3.013
-0.123	-3.306
-0.123	-3.398
-0.131	-2.793
-0.14	-2.488
-0.146	-2.312
-0.149	-1.478
-0.145	-0.991
-0.161	-1.29
-0.157	-1.376
-0.162	-0.647
-0.167	-0.858
-0.162	-1.139
-0.168	-0.857
-0.159	-0.725
-0.165	-0.569
-0.168	-0.199
-0.173	-0.157
-0.167	-0.522
-0.168	-0.657
-0.167	-0.094
-0.154	-0.428
-0.168	-0.807
-0.16	-0.583
-0.164	-0.63
-0.162	-0.487
-0.153	0.021
-0.154	0.076
-0.146	-0.234
-0.151	-0.435
-0.148	0.186
-0.149	-0.223
-0.146	-0.676
-0.137	-0.409
-0.148	-0.37
-0.146	-0.282
-0.153	0.211
-0.155	0.338
-0.153	-0.049
-0.157	-0.413
-0.151	0.146
-0.16	-0.156
-0.161	-0.417
-0.168	-0.176
-0.172	-0.303
-0.177	-0.215
-0.176	0.292
-0.173	0.383
-0.19	0.04
-0.192	-0.182
-0.21	0.353
-0.215	0.002
-0.214	-0.406
-0.226	-0.238
-0.231	-0.272
-0.236	-0.145
-0.238	0.437
-0.242	0.577
-0.244	0.061
-0.234	-0.144
-0.242	0.509
-0.242	0.16
-0.24	-0.197
-0.242	0.012
-0.239	-0.101
-0.236	0.084
-0.217	0.574
-0.228	0.647
-0.223	0.298
-0.22	0.1
-0.221	0.664
-0.219	0.35
-0.22	-0.072
-0.203	0.153
-0.212	0.171
-0.209	0.378
-0.208	0.894
-0.203	0.951
-0.192	0.615
-0.204	0.337
-0.195	0.881
-0.203	0.509
-0.201	0.144
-0.199	0.374
-0.201	0.479
-0.195	0.641
-0.209	1.058
-0.209	1.09
-0.209	0.768
-0.211	0.546
-0.221	1.183
-0.222	0.824
-0.208	0.399
-0.231	0.579
-0.229	0.486
-0.231	0.641
-0.232	1.179
-0.236	1.237
-0.233	0.781
-0.226	0.529
-0.232	1.146
-0.236	0.764
-0.232	0.409
-0.231	0.607
-0.22	0.592
-0.222	0.729
-0.21	1.199
-0.219	1.195
-0.211	0.762
-0.21	0.442
-0.206	0.984
-0.19	0.563
-0.198	0.14
-0.19	0.251
-0.19	-0.024
-0.188	0.081
-0.187	0.586
-0.187	0.671
-0.177	0.199
-0.194	-0.007
-0.19	0.458
-0.195	0.05
-0.194	-0.383
-0.199	-0.272
-0.198	-0.385
-0.192	-0.341
-0.205	0.104
-0.206	0.028
-0.204	-0.4
-0.199	-0.533
-0.192	0.012
-0.192	-0.352
-0.182	-0.831
-0.177	-0.634
-0.171	-0.762
-0.164	-0.653
-0.151	-0.096
-0.129	-0.081
-0.133	-0.481
-0.118	-0.713
-0.106	-0.12
-0.1	-0.422
-0.087	-0.875
-0.077	-0.732
-0.05	-0.87
-0.055	-0.74
-0.05	-0.173
-0.039	-0.083
-0.028	-0.509
-0.018	-0.819
-0.012	-0.177
0.005	-0.547
0	-0.909
0.005	-0.585
0.01	-0.659
0.011	-0.562
0.027	-0.039
0.017	-0.028
0.021	-0.471
0.026	-0.544
0.023	-0.081
0.024	-0.58
0.02	-0.95
0.035	-0.688
0.026	-0.717
0.027	-0.573
0.033	-0.125
0.033	-0.101
0.029	-0.463
0.032	-0.712
0.044	-0.126
0.037	-0.409
0.032	-0.824
0.037	-0.649
0.034	-0.825
0.044	-0.679
0.041	-0.062
0.05	0.066
0.045	-0.341
0.046	-0.76
0.043	-0.067
0.046	-0.32
0.056	-0.818
0.046	-0.697
0.048	-0.787
0.043	-0.631
0.046	-0.1
0.044	0.062
0.035	-0.392
0.048	-0.638
0.024	-0.15
0.024	-0.56
0.017	-0.929
0.012	-0.558
0.007	-0.532
0.002	-0.5
0.004	-0.094
-0.011	-0.052
-0.018	-0.472
-0.026	-0.708
-0.035	-0.114
-0.034	-0.437
-0.049	-0.807
-0.045	-0.656
-0.056	-0.916
-0.057	-0.779
-0.057	-0.201
-0.063	-0.112
-0.059	-0.61
-0.067	-0.886
-0.067	-0.079
-0.073	-0.404
-0.072	-1.011
-0.077	-0.804
-0.078	-0.703
-0.063	-0.449
-0.081	-0.06
-0.077	-0.076
-0.079	-0.526
-0.078	-0.718
-0.078	-0.238
-0.073	-0.46
-0.065	-0.851
-0.073	-0.674
-0.072	-0.853
-0.07	-0.72
-0.071	-0.056
-0.07	0.14
-0.074	-0.231
-0.07	-0.54
-0.078	-0.004
-0.082	-0.25
-0.077	-0.569
-0.083	-0.273
-0.079	-0.266
-0.093	-0.087
-0.094	0.388
-0.1	0.403
-0.105	0.04
-0.104	-0.101
-0.11	0.455
-0.103	0.046
-0.123	-0.42
-0.125	-0.2
-0.127	-0.288
-0.138	-0.178
-0.145	0.278
-0.15	0.295
-0.149	-0.101
-0.161	-0.294
-0.17	0.144
-0.176	-0.341
-0.179	-0.846
-0.179	-0.773
-0.194	-0.773
-0.193	-0.513
-0.199	-0.123
-0.208	-0.227
-0.209	-0.681
-0.208	-0.839
-0.2	-0.204
-0.216	-0.671
-0.216	-1.157
-0.22	-0.944
-0.223	-1
-0.227	-0.879
-0.222	-0.319
-0.208	-0.256
-0.219	-0.708
-0.22	-0.864
-0.217	-0.288
-0.219	-0.811
-0.212	-1.274
-0.217	-1.035
-0.201	-1.033
-0.205	-0.894
-0.204	-0.425
-0.204	-0.404
-0.199	-0.837
-0.187	-0.963
-0.195	-0.36
-0.199	-0.8
-0.197	-1.355
-0.197	-1.095
-0.197	-1.042
-0.199	-0.917
-0.177	-0.486
-0.194	-0.3
-0.194	-0.675
-0.198	-0.996
-0.194	-0.389
-0.203	-0.651
-0.206	-1.108
-0.194	-0.898
-0.205	-0.939
-0.205	-0.848
-0.212	-0.369
-0.216	-0.259
-0.212	-0.642
-0.22	-0.732
-0.219	-0.011
-0.223	-0.264
-0.228	-0.847
-0.227	-0.76
-0.232	-0.754
-0.219	-0.406
-0.226	0.33
-0.222	0.575
-0.227	0.41
-0.223	0.298
-0.221	0.924
-0.222	0.624
-0.208	0.137
-0.217	0.229
-0.212	0.031
-0.206	0.004
-0.205	0.302
-0.198	-0.112
-0.197	-1.237
-0.187	-1.94
-0.199	-1.506
-0.193	-2.08
-0.193	-2.974
-0.197	-3.208
-0.193	-3.427
-0.197	-3.271
-0.197	-2.672
-0.201	-2.28
-0.209	-2.378
-0.21	-2.322
-0.216	-1.643
-0.205	-1.666
-0.215	-1.704
-0.221	-1.252
-0.228	-1.232
-0.233	-1.116
-0.237	-0.433
-0.239	-0.126
-0.234	-0.483
-0.254	-0.607
-0.253	-0.04
-0.258	-0.442
-0.261	-0.905
-0.261	-0.566
-0.265	-0.579
-0.26	-0.453
-0.267	0.106
-0.267	0.275
-0.271	-0.149
-0.265	-0.61
-0.26	0
-0.266	-0.221
-0.264	-0.734
-0.267	-0.569
-0.265	-0.525
-0.26	-0.461
-0.264	0.007
-0.247	0.193
-0.254	-0.244
-0.25	-0.511
-0.249	0.223
-0.25	-0.116
-0.244	-0.698
-0.245	-0.524
-0.232	-0.402
-0.24	-0.228
-0.24	0.137
-0.233	0.322
-0.24	-0.029
-0.238	-0.334
-0.236	0.261
-0.227	0.057
-0.24	-0.366
-0.238	-0.32
-0.234	-0.297
-0.237	-0.177
-0.232	0.272
-0.239	0.509
-0.234	0.217
-0.242	-0.013
-0.242	0.386
-0.239	0.048
-0.24	-0.468
-0.231	-0.266
-0.256	-0.146
-0.25	-0.012
-0.259	0.452
-0.264	0.635
-0.269	0.24
-0.273	-0.044
-0.27	0.634
-0.289	0.367
-0.294	-0.071
-0.297	0.165
-0.3	0.099
-0.304	0.275
-0.309	0.734
-0.303	0.946
-0.316	0.679
-0.312	0.421
-0.32	0.884
-0.319	0.549
-0.308	0.105
-0.317	0.302
-0.31	0.168
-0.312	0.438
-0.312	1.042
-0.309	1.1
-0.302	0.619
-0.287	0.344
-0.3	0.997
-0.298	0.78
-0.297	0.341
-0.287	0.547
-0.283	0.483
-0.277	0.591
-0.262	1.143
-0.277	1.255
-0.269	0.773
-0.265	0.42
-0.264	1.14
-0.259	0.911
-0.25	0.446
-0.244	0.668
-0.244	0.646
-0.244	0.77
-0.238	1.216
-0.234	1.219
-0.223	0.771
-0.228	0.631
-0.222	1.229
-0.22	0.933
-0.217	0.389
-0.214	0.594
-0.209	0.576
-0.193	0.51
-0.206	0.789
-0.205	0.907
-0.199	0.527
-0.201	0.148
-0.208	0.568
-0.195	0.31
-0.184	-0.219
-0.192	-0.088
-0.194	-0.046
-0.192	-0.131
-0.193	0.334
-0.187	0.488
-0.193	-0.004
-0.184	-0.304
-0.192	0.214
-0.193	-0.071
-0.192	-0.575
-0.189	-0.518
-0.179	-0.533
-0.19	-0.403
-0.193	0.02
-0.189	0.101
-0.188	-0.249
-0.192	-0.443
-0.186	0.125
-0.166	-0.374
-0.182	-0.992
-0.178	-0.795
-0.171	-0.695
-0.165	-0.63
-0.161	-0.289
-0.156	-0.115
-0.134	-0.471
-0.135	-0.815
-0.131	-0.157
-0.117	-0.284
-0.11	-0.786
-0.09	-0.69
-0.088	-0.654
-0.076	-0.53
-0.07	-0.156
-0.052	-0.099
-0.048	-0.502
-0.031	-0.748
-0.016	-0.133
-0.017	-0.321
-0.007	-0.901
0.001	-0.753
0.009	-0.68
0.016	-0.537
0.023	-0.123
0.044	-0.068
0.035	-0.432
0.043	-0.623
0.045	0.071
0.052	-0.231
0.056	-0.813
0.056	-0.704
0.062	-0.697
0.059	-0.638
0.059	-0.094
0.059	0.103
0.054	-0.431
0.06	-0.646
0.048	-0.085
0.041	-0.42
0.043	-0.875
0.037	-0.636
0.031	-0.656
0.028	-0.543
0.034	-0.031
0.017	0.099
0.009	-0.342
0.005	-0.627
0	-0.013
-0.011	-0.206
-0.016	-0.646
-0.004	-0.623
-0.021	-0.693
-0.029	-0.535
-0.033	-0.041
-0.037	0.09
-0.041	-0.365
-0.048	-0.631
-0.052	-0.125
-0.056	-0.387
-0.067	-0.829
-0.063	-0.521
-0.068	-0.408
-0.062	-0.436
-0.077	-0.073
-0.079	0.041
-0.078	-0.286
-0.085	-0.653
-0.083	-0.256
-0.084	-0.498
-0.07	-0.868
-0.081	-0.645
-0.084	-0.619
-0.085	-0.58
-0.089	-0.201
-0.087	-0.059
-0.088	-0.411
-0.079	-0.707
-0.09	-0.148
-0.09	-0.375
-0.09	-0.803
-0.092	-0.598
-0.081	-0.715
-0.089	-0.54
-0.088	-0.121
-0.089	-0.012
-0.092	-0.399
-0.092	-0.522
-0.096	-0.032
-0.085	-0.319
-0.094	-0.782
-0.099	-0.603
-0.105	-0.669
-0.106	-0.491
-0.112	0.074
-0.115	0.288
-0.105	-0.079
-0.118	-0.27
-0.118	0.439
-0.131	0.201
-0.137	-0.288
-0.133	-0.201
-0.145	-0.214
-0.143	-0.2
-0.156	0.236
-0.157	0.394
-0.162	0.116
-0.168	-0.005
-0.161	0.568
-0.17	0.287
-0.167	-0.205
-0.181	-0.206
-0.175	-0.309
-0.179	-0.291
-0.183	0.082
-0.172	0.248
-0.184	-0.266
-0.182	-0.598
-0.184	-0.04
-0.186	-0.309
-0.188	-0.961
-0.184	-0.929
-0.172	-0.846
-0.184	-0.629
-0.181	-0.142
-0.181	0.021
-0.175	-0.536
-0.171	-0.902
-0.168	-0.244
-0.155	-0.422
-0.161	-0.967
-0.159	-0.774
-0.16	-0.725
-0.164	-0.704
-0.151	-0.303
-0.155	-0.122
-0.156	-0.533
-0.156	-0.741
-0.16	-0.164
-0.159	-0.464
-0.159	-0.881
-0.149	-0.715
-0.161	-0.842
-0.161	-0.79
-0.16	-0.287
-0.164	-0.14
-0.164	-0.564
-0.167	-0.897
-0.154	-0.308
-0.171	-0.533
-0.175	-0.988
-0.178	-0.826
-0.184	-0.675
-0.184	-0.59
-0.188	-0.211
-0.192	-0.06
-0.204	-0.486
-0.208	-0.824
-0.216	-0.209
-0.219	-0.354
-0.212	-0.873
-0.221	-0.695
-0.221	-0.666
-0.227	-0.626
-0.228	-0.122
-0.226	0.132
-0.236	-0.288
-0.222	-0.544
-0.232	0.106
-0.228	0.035
-0.232	-0.555
-0.228	-0.383
-0.223	-0.103
-0.223	0.149
-0.212	0.61
-0.223	0.876
-0.216	0.671
-0.214	0.471
-0.214	1.16
-0.206	0.948
-0.206	0.347
-0.19	0.367
-0.199	0.253
-0.193	-0.087
-0.186	-0.245
-0.181	-0.679
-0.17	-1.426
-0.176	-2.053
-0.17	-1.831
-0.172	-2.504
-0.171	-3.253
-0.17	-3.17
-0.172	-3.124
-0.159	-2.883
-0.175	-2.236
-0.172	-1.776
-0.172	-1.967
-0.172	-1.976
-0.172	-1.107
-0.173	-1.165
-0.162	-1.495
-0.166	-1.023
-0.167	-0.931
-0.167	-0.629
-0.167	0.045
-0.165	0.265
-0.168	-0.041
-0.162	-0.306
-0.172	0.129
-0.173	0.009
-0.173	-0.498
-0.173	-0.344
-0.167	-0.321
-0.183	-0.229
-0.184	0.352
-0.192	0.57
-0.197	0.048
-0.2	-0.139
-0.2	0.427
-0.192	0.195
-0.215	-0.293
-0.217	-0.178
-0.223	-0.128
-0.227	0.005
-0.231	0.508
-0.228	0.684
-0.228	0.28
-0.238	0.001
-0.242	0.398
-0.239	0.258
-0.245	-0.22
-0.243	-0.085
-0.253	-0.017
-0.249	0.017
-0.253	0.515
-0.25	0.758
-0.251	0.243
-0.251	-0.055
-0.239	0.439
-0.251	0.284
-0.247	-0.074
-0.244	0.127
-0.243	0.048
-0.236	0.098
-0.233	0.609
-0.217	0.854
-0.228	0.432
-0.226	0.128
-0.221	0.759
-0.222	0.646
-0.221	0.041
-0.221	0.095
-0.209	0.209
-0.216	0.425
-0.22	0.881
-0.216	1.11
-0.215	0.737
-0.208	0.416
-0.219	0.911
-0.219	0.78
-0.223	0.286
-0.222	0.36
-0.222	0.461
-0.221	0.513
-0.212	0.892
-0.228	1.19
-0.229	0.868
-0.232	0.541
-0.234	1.108
-0.238	0.979
-0.243	0.496
-0.229	0.666
-0.248	0.66
-0.256	0.825
-0.254	1.362
-0.259	1.593
-0.262	1.211
-0.27	0.87
-0.27	1.448
-0.276	1.313
-0.276	0.76
-0.277	0.787
-0.281	0.822
-0.272	1.027
-0.283	1.597
-0.282	1.755
-0.287	1.328
-0.291	0.991
-0.289	1.487
-0.291	1.396
-0.276	0.824
-0.289	0.958
-0.286	0.841
-0.291	1.011
-0.286	1.484
-0.288	1.635
-0.282	1.221
-0.273	0.856
-0.286	1.42
-0.277	1.233
-0.271	0.687
-0.27	0.718
-0.259	0.581
-0.261	0.619
-0.259	1.13
-0.251	1.218
-0.253	0.647
-0.244	0.244
-0.236	0.881
-0.226	0.724
-0.227	0.093
-0.226	0.143
-0.222	0.151
-0.219	-0.004
-0.216	0.337
-0.208	0.607
-0.189	0.164
-0.199	-0.272
-0.181	0.366
-0.176	0.248
-0.17	-0.405
-0.166	-0.316
-0.159	-0.275
-0.144	-0.247
-0.143	0.17
-0.137	0.225
-0.126	-0.184
-0.118	-0.441
-0.105	0.2
-0.105	0.05
-0.093	-0.541
-0.088	-0.468
-0.085	-0.28
-0.077	-0.249
-0.067	0.041
-0.046	0.184
-0.055	-0.186
-0.051	-0.468
-0.044	0.166
-0.037	-0.066
-0.037	-0.637
-0.027	-0.371
-0.01	-0.447
-0.024	-0.281
-0.021	0.073
-0.017	0.234
-0.013	-0.182
-0.006	-0.459
-0.009	0.071
-0.001	-0.052
-0.011	-0.492
-0.007	-0.42
-0.004	-0.364
-0.004	-0.304
0.001	0.168
-0.004	0.234
0.004	-0.284
0.005	-0.428
0.009	0.116
0.013	-0.072
0.018	-0.574
0.035	-0.465
0.026	-0.469
0.035	-0.529
0.039	-0.101
0.043	0.186
0.05	-0.133
0.059	-0.437
0.072	0.109
0.065	-0.059
0.068	-0.66
0.076	-0.492
0.076	-0.482
0.077	-0.389
0.079	0.109
0.094	0.37
0.081	-0.063
0.085	-0.538
0.089	0.006
0.087	-0.164
0.099	-0.641
0.083	-0.455
0.092	-0.51
0.087	-0.496
0.087	-0.033
0.087	0.238
0.084	-0.145
0.096	-0.546
0.078	0.007
0.083	-0.09
0.077	-0.608
0.079	-0.43
0.07	-0.413
0.071	-0.527
0.079	-0.063
0.057	0.283
0.05	-0.114
0.05	-0.446
0.041	0.144
0.039	-0.057
0.033	-0.713
0.037	-0.62
0.022	-0.549
0.018	-0.513
0.016	-0.111
0.005	0.087
0.011	-0.193
0.001	-0.414
-0.001	0.082
-0.004	-0.073
-0.011	-0.623
-0.01	-0.54
-0.015	-0.574
-0.011	-0.349
-0.028	0.151
-0.031	0.35
-0.041	-0.029
-0.045	-0.425
-0.05	0.056
-0.057	-0.088
-0.055	-0.583
-0.071	-0.337
-0.073	-0.276
-0.088	-0.205
-0.092	0.356
-0.092	0.557
-0.094	0.198
-0.1	-0.081
-0.109	0.579
-0.111	0.439
-0.107	-0.172
-0.117	-0.038
-0.111	-0.104
-0.125	-0.006
-0.121	0.474
-0.125	0.709
-0.131	0.262
-0.135	0.009
-0.134	0.557
-0.127	0.518
-0.139	-0.166
-0.14	-0.194
-0.142	-0.159
-0.143	-0.151
-0.14	0.131
-0.139	0.194
-0.131	-0.17
-0.142	-0.518
-0.138	-0.001
-0.138	-0.082
-0.139	-0.693
-0.134	-0.596
-0.138	-0.522
-0.135	-0.521
-0.138	-0.017
-0.133	0.135
-0.14	-0.43
-0.135	-0.718
-0.123	-0.143
-0.135	-0.16
-0.132	-0.812
-0.129	-0.88
-0.133	-0.747
-0.128	-0.688
-0.131	-0.238
-0.117	0.034
-0.132	-0.406
-0.126	-0.874
-0.133	-0.366
-0.135	-0.447
-0.138	-0.851
-0.142	-0.675
-0.134	-0.719
-0.145	-0.75
-0.148	-0.24
-0.148	0.001
-0.153	-0.43
-0.15	-0.903
-0.161	-0.3
-0.164	-0.339
-0.171	-0.922
-0.172	-0.747
-0.177	-0.581
-0.183	-0.566
-0.171	-0.217
-0.187	0
-0.187	-0.392
-0.198	-0.676
-0.201	-0.186
-0.203	-0.243
-0.2	-0.72
-0.192	-0.721
-0.206	-0.784
-0.205	-0.706
-0.204	-0.068
-0.206	0.332
-0.201	-0.011
-0.198	-0.339
-0.195	0.226
-0.198	0.07
-0.197	-0.511
-0.187	-0.276
-0.187	0.054
-0.181	0.283
-0.189	0.745
-0.183	1.042
-0.186	0.582
-0.179	0.205
-0.177	0.579
-0.173	0.372
-0.157	-0.378
-0.166	-0.448
-0.165	-0.808
-0.161	-1.296
-0.16	-1.412
-0.164	-1.577
-0.161	-2.209
-0.144	-2.778
-0.16	-2.605
-0.165	-2.876
-0.167	-3.429
-0.171	-3.187
-0.171	-2.919
-0.179	-2.515
-0.183	-1.783
-0.192	-1.338
-0.199	-1.476
-0.206	-1.49
-0.206	-0.687
-0.199	-0.741
-0.217	-1.248
-0.221	-0.914
-0.223	-0.723
-0.229	-0.656
-0.239	-0.148
-0.236	0.16
-0.228	-0.298
-0.24	-0.419
-0.248	0.142
-0.248	-0.026
-0.248	-0.61
-0.248	-0.499
-0.251	-0.616
-0.242	-0.494
-0.251	0.122
-0.251	0.48
-0.253	0.012
-0.25	-0.394
-0.243	0.154
-0.251	0.112
-0.248	-0.516
-0.247	-0.425
-0.251	-0.314
-0.249	-0.182
-0.25	0.244
-0.234	0.432
-0.25	0.063
-0.244	-0.221
-0.247	0.278
-0.244	0.265
-0.25	-0.266
-0.255	-0.231
-0.243	-0.071
-0.258	-0.11
-0.26	0.284
-0.266	0.529
-0.269	0.15
-0.269	-0.032
-0.27	0.443
-0.265	0.297
-0.276	-0.382
-0.276	-0.25
-0.278	-0.092
-0.282	-0.066
-0.271	0.338
-0.278	0.696
-0.276	0.381
-0.28	0.033
-0.277	0.493
-0.277	0.411
-0.273	-0.178
-0.267	-0.084
-0.278	-0.015
-0.275	0.105
-0.278	0.635
-0.277	0.82
-0.282	0.396
-0.288	0.122
-0.276	0.68
-0.292	0.546
-0.291	-0.031
-0.287	0.205
-0.295	0.286
-0.297	0.266
-0.297	0.78
-0.293	1.05
-0.305	0.669
-0.31	0.386
-0.316	0.892
-0.319	0.879
-0.312	0.359
-0.327	0.513
-0.32	0.566
-0.327	0.583
-0.33	1.033
-0.328	1.256
-0.33	0.889
-0.32	0.507
-0.331	0.872
-0.33	0.939
-0.328	0.463
-0.323	0.638
-0.323	0.642
-0.312	0.706
-0.302	1.028
-0.314	1.199
-0.309	0.795
-0.303	0.636
-0.3	1.11
-0.293	0.973
-0.288	0.314
-0.272	0.518
-0.276	0.657
-0.275	0.712
-0.265	1.088
-0.259	1.279
-0.249	0.879
-0.255	0.649
-0.247	1.024
-0.243	0.835
-0.247	0.343
-0.238	0.525
-0.242	0.452
-0.229	0.248
-0.239	0.602
-0.244	0.929
-0.24	0.488
-0.244	0.062
-0.244	0.487
-0.248	0.328
-0.234	-0.332
-0.244	-0.245
-0.247	-0.227
-0.249	-0.194
-0.24	0.288
-0.236	0.5
-0.236	0.057
-0.225	-0.411
-0.228	0.043
-0.225	0.049
-0.22	-0.63
-0.211	-0.658
-0.195	-0.688
-0.201	-0.67
-0.192	-0.193
-0.184	0.033
-0.177	-0.414
-0.165	-0.645
-0.154	-0.085
-0.131	-0.214
-0.135	-0.867
-0.125	-0.748
-0.116	-0.757
-0.1	-0.715
-0.093	-0.24
-0.088	0.031
-0.07	-0.383
-0.066	-0.764
-0.059	-0.276
-0.051	-0.321
-0.05	-0.763
-0.032	-0.599
-0.032	-0.569
-0.029	-0.576
-0.028	-0.123
-0.017	0.14
-0.017	-0.234
-0.012	-0.564
0	-0.062
-0.009	-0.165
-0.004	-0.778
-0.009	-0.559
-0.004	-0.405
0.006	-0.525
0.004	-0.243
0.021	0.107
0.012	-0.371
0.015	-0.72
0.012	-0.227
0.018	-0.221
0.02	-0.73
0.027	-0.608
0.035	-0.647
0.028	-0.61
0.037	-0.216
0.037	0.052
0.037	-0.332
0.043	-0.654
0.038	-0.171
0.039	-0.173
0.037	-0.806
0.04	-0.76
0.04	-0.736
0.041	-0.581
0.055	-0.032
0.041	0.256
0.04	-0.264
0.039	-0.64
0.031	-0.164
0.039	-0.195
0.034	-0.747
0.048	-0.618
0.028	-0.565
0.026	-0.51
0.024	-0.092
0.013	0.16
0.009	-0.206
0.004	-0.581
0.001	-0.131
-0.013	-0.198
-0.02	-0.791
-0.028	-0.756
-0.039	-0.654
-0.038	-0.491
-0.059	-0.197
-0.06	0.031
-0.072	-0.327
-0.079	-0.603
-0.083	-0.106
-0.088	-0.222
-0.084	-0.823
-0.1	-0.764
-0.106	-0.687
-0.109	-0.592
-0.111	-0.195
-0.115	0.002
-0.114	-0.402
-0.1	-0.665
-0.109	-0.184
-0.103	-0.194
-0.106	-0.839
-0.1	-0.756
-0.099	-0.579
-0.105	-0.626
-0.096	-0.237
-0.101	0.024
-0.1	-0.371
-0.101	-0.742
-0.098	-0.305
-0.087	-0.242
-0.099	-0.785
-0.092	-0.618
-0.099	-0.573
-0.101	-0.63
-0.1	-0.177
-0.1	0.153
-0.081	-0.181
-0.096	-0.472
-0.103	0.145
-0.098	0.178
-0.103	-0.474
-0.11	-0.249
-0.114	-0.129
-0.106	-0.229
-0.122	0.182
-0.128	0.509
-0.131	0.148
-0.134	-0.294
-0.135	0.157
-0.146	0.234
-0.142	-0.172
-0.148	-0.037
-0.153	-0.009
-0.15	-0.084
-0.151	0.327
-0.138	0.588
-0.154	0.005
-0.156	-0.538
-0.156	-0.055
-0.156	-0.015
-0.164	-0.618
-0.161	-0.679
-0.146	-0.618
-0.16	-0.576
-0.157	-0.195
-0.157	0.032
-0.157	-0.402
-0.156	-0.696
-0.159	-0.164
-0.154	-0.294
-0.157	-0.918
-0.161	-0.844
-0.166	-0.841
-0.165	-0.891
-0.161	-0.441
-0.172	-0.11
-0.179	-0.547
-0.184	-0.826
-0.187	-0.294
-0.195	-0.275
-0.195	-0.883
-0.186	-0.925
-0.198	-0.811
-0.201	-0.762
-0.201	-0.406
-0.205	-0.135
-0.206	-0.591
-0.206	-0.92
-0.197	-0.413
-0.206	-0.371
-0.204	-0.99
-0.203	-0.901
-0.201	-0.732
-0.195	-0.769
-0.198	-0.389
-0.19	-0.143
-0.197	-0.568
-0.19	-1.028
-0.189	-0.529
-0.192	-0.426
-0.178	-1.106
-0.181	-1.005
-0.178	-0.852
-0.176	-0.822
-0.167	-0.428
-0.17	-0.182
-0.162	-0.542
-0.151	-0.74
-0.159	-0.192
-0.146	-0.096
-0.151	-0.713
-0.149	-0.612
-0.144	-0.408
-0.14	-0.305
-0.132	0.099
-0.146	0.447
-0.148	0.195
-0.149	0.068
-0.157	0.686
-0.155	0.874
-0.161	0.258
-0.156	0.249
-0.171	0.345
-0.175	0.295
-0.177	0.394
-0.182	0.421
-0.176	-0.084
-0.19	-0.848
-0.19	-0.92
-0.194	-1.547
-0.206	-2.501
-0.203	-2.711
-0.21	-2.861
-0.197	-3.149
-0.22	-3.077
-0.214	-2.809
-0.216	-3.022
-0.211	-3.07
-0.22	-2.274
-0.214	-1.929
-0.197	-2.292
-0.208	-1.959
-0.208	-1.586
-0.21	-1.349
-0.204	-0.839
-0.197	-0.436
-0.197	-0.491
-0.187	-0.789
-0.192	-0.363
-0.19	-0.208
-0.192	-0.708
-0.187	-0.553
-0.178	-0.527
-0.186	-0.505
-0.183	-0.015
-0.184	0.334
-0.187	-0.037
-0.184	-0.599
-0.188	-0.148
-0.173	0.06
-0.189	-0.549
-0.193	-0.397
-0.189	-0.242
-0.192	-0.28
-0.193	0.121
-0.195	0.455
-0.188	0.088
-0.204	-0.182
-0.205	0.251
-0.208	0.232
-0.212	-0.431
-0.208	-0.319
-0.221	-0.2
-0.214	-0.104
-0.221	0.376
-0.221	0.67
-0.225	0.122
-0.227	-0.187
-0.217	0.199
-0.229	0.26
-0.231	-0.24
-0.227	-0.143
-0.229	-0.095
-0.228	-0.046
-0.225	0.261
-0.209	0.566
-0.226	0.245
-0.216	-0.111
-0.22	0.292
-0.219	0.398
-0.214	-0.09
-0.21	-0.068
-0.197	-0.062
-0.206	-0.061
-0.205	0.334
-0.209	0.751
-0.203	0.453
-0.197	0.149
-0.205	0.615
-0.203	0.669
-0.208	0.094
-0.206	0.201
-0.21	0.33
-0.217	0.321
-0.208	0.654
-0.217	0.98
-0.223	0.586
-0.229	0.222
-0.228	0.712
-0.229	0.745
-0.231	0.156
-0.219	0.321
-0.227	0.463
-0.229	0.496
-0.227	0.996
-0.232	1.232
-0.225	0.873
-0.221	0.565
-0.211	0.962
-0.217	1.016
-0.214	0.502
-0.21	0.463
-0.21	0.503
-0.198	0.525
-0.203	1.008
-0.197	1.327
-0.205	1.069
-0.205	0.706
-0.204	1.138
-0.204	1.166
-0.195	0.568
-0.212	0.745
-0.211	0.793
-0.22	0.753
-0.219	1.171
-0.226	1.455
-0.219	1.007
-0.215	0.685
-0.226	1.262
-0.226	1.218
-0.226	0.468
-0.228	0.562
-0.227	0.58
-0.228	0.607
-0.221	1.014
-0.223	1.193
-0.22	0.782
-0.216	0.332
-0.209	0.663
-0.199	0.677
-0.206	0.012
-0.195	-0.027
-0.192	0.096
-0.188	-0.001
-0.181	0.25
-0.175	0.54
-0.159	0.145
-0.162	-0.27
-0.159	0.197
-0.155	0.319
-0.157	-0.42
-0.155	-0.444
-0.148	-0.262
-0.132	-0.341
-0.14	-0.078
-0.14	0.162
-0.137	-0.231
-0.131	-0.538
-0.123	-0.159
-0.127	-0.126
-0.114	-0.652
-0.111	-0.665
-0.107	-0.681
-0.104	-0.558
-0.098	-0.114
-0.072	0.051
-0.081	-0.398
-0.072	-0.641
-0.07	-0.186
-0.054	-0.264
-0.05	-0.824
-0.041	-0.754
-0.026	-0.658
-0.026	-0.664
-0.015	-0.326
-0.002	0.004
-0.007	-0.292
0.01	-0.671
0.015	-0.287
0.022	-0.142
0.023	-0.676
0.033	-0.594
0.034	-0.474
0.034	-0.569
0.044	-0.212
0.041	0.079
0.038	-0.281
0.038	-0.66
0.033	-0.278
0.034	-0.135
0.033	-0.703
0.05	-0.702
0.033	-0.599
0.037	-0.515
0.038	-0.074
0.035	0.121
0.037	-0.319
0.043	-0.677
0.056	-0.231
0.043	-0.099
0.046	-0.728
0.045	-0.658
0.05	-0.641
0.054	-0.646
0.049	-0.175
0.062	0.09
0.05	-0.272
0.051	-0.63
0.051	-0.219
0.055	-0.142
0.054	-0.657
0.045	-0.489
0.045	-0.404
0.039	-0.466
0.032	-0.041
0.023	0.265
0.016	-0.2
0.026	-0.734
0.004	-0.245
-0.002	-0.103
-0.002	-0.861
-0.005	-0.858
-0.011	-0.635
-0.018	-0.551
-0.006	-0.204
-0.018	0.056
-0.022	-0.355
-0.021	-0.746
-0.026	-0.311
-0.023	-0.176
-0.028	-0.785
-0.02	-0.735
-0.029	-0.613
-0.029	-0.652
-0.028	-0.259
-0.028	0.043
-0.02	-0.378
-0.027	-0.712
-0.029	-0.166
-0.032	-0.083
-0.037	-0.828
-0.037	-0.762
-0.048	-0.64
-0.038	-0.649
-0.057	-0.195
-0.057	0.114
-0.062	-0.278
-0.07	-0.646
-0.068	-0.2
-0.072	-0.041
-0.063	-0.645
-0.083	-0.682
-0.076	-0.537
-0.081	-0.67
-0.082	-0.439
-0.082	-0.154
-0.087	-0.459
-0.079	-0.645
-0.089	-0.286
-0.092	-0.201
-0.089	-0.875
-0.085	-0.889
-0.081	-0.652
-0.084	-0.585
-0.079	-0.181
-0.083	0.228
-0.088	-0.078
-0.09	-0.288
-0.09	0.234
-0.083	0.254
-0.1	-0.37
-0.103	-0.348
-0.109	-0.343
-0.118	-0.299
-0.123	0.142
-0.129	0.469
-0.125	0.236
-0.14	-0.073
-0.149	0.283
-0.153	0.391
-0.156	-0.223
-0.155	-0.315
-0.171	-0.417
-0.162	-0.54
-0.175	-0.222
-0.176	0.089
-0.179	-0.304
-0.177	-0.648
-0.166	-0.259
-0.178	-0.214
-0.176	-0.961
-0.173	-0.992
-0.171	-0.923
-0.173	-0.837
-0.166	-0.454
-0.155	-0.182
-0.17	-0.553
-0.17	-0.927
-0.167	-0.493
-0.16	-0.383
-0.165	-1.077
-0.162	-1.017
-0.15	-0.791
-0.149	-0.856
-0.151	-0.554
-0.153	-0.234
-0.151	-0.54
-0.142	-1.002
-0.149	-0.593
-0.149	-0.569
-0.148	-1.147
-0.149	-1.102
-0.154	-0.906
-0.155	-0.864
-0.143	-0.507
-0.157	-0.292
-0.162	-0.647
-0.164	-0.819
-0.166	-0.382
-0.168	-0.38
-0.171	-1.067
-0.162	-0.972
-0.178	-0.95
-0.181	-1.003
-0.189	-0.585
-0.181	-0.21
-0.181	-0.562
-0.182	-1.068
-0.173	-0.624
-0.181	-0.355
-0.176	-1.046
-0.176	-1.074
-0.175	-0.916
-0.166	-0.916
-0.172	-0.612
-0.164	-0.114
-0.164	-0.372
-0.16	-0.646
-0.164	-0.201
-0.157	-0.101
-0.148	-0.717
-0.155	-0.674
-0.155	-0.411
-0.153	-0.094
-0.149	0.516
-0.144	0.878
-0.144	0.493
-0.132	0.181
-0.14	0.563
-0.143	0.742
-0.144	0.153
-0.143	-0.104
-0.145	-0.137
-0.148	-0.337
-0.151	-0.446
-0.164	-0.859
-0.166	-1.925
-0.172	-2.41
-0.176	-2.253
-0.177	-2.501
-0.19	-3.416
-0.188	-3.608
-0.195	-3.47
-0.198	-3.27
-0.197	-2.589
-0.198	-1.954
-0.181	-2.124
-0.198	-2.302
-0.193	-1.609
-0.19	-1.13
-0.189	-1.51
-0.187	-1.353
-0.184	-1.093
-0.167	-0.886
-0.182	-0.492
-0.172	-0.138
-0.171	-0.404
-0.172	-0.68
-0.17	-0.295
-0.171	-0.178
-0.16	-0.756
-0.164	-0.629
-0.166	-0.564
-0.162	-0.53
-0.165	-0.035
-0.153	0.337
-0.166	-0.148
-0.166	-0.599
-0.177	-0.144
-0.183	0.079
-0.182	-0.524
-0.188	-0.554
-0.175	-0.635
-0.19	-0.465
-0.19	0.016
-0.198	0.272
-0.203	-0.211
-0.203	-0.638
